code,,cygnus
-140156.2113,,165521.95
-134657.3245,,121165.71
-128618.2855,,72624.69
-121064.6476,,17987.12
-105322.761,,-41053.61
-111890.1505,,-99327.53
-117991.4168,,-149660.31
-116825.8627,,-185023.88
-82364.6137,,-200488.4
-28671.20846,,-194294.75
26613.68568,,-167837.51
78373.4415,,-124839.22
116043.5517,,-70268.99
123922.6757,,-9509.66
118134.7362,,52015.68
110976.3665,,108891.36
103147.9809,,155760.97
94884.49632,,187668.86
77414.50696,,200743.95
33247.59403,,193012.69
-18412.51772,,164989.56
-67906.70072,,119758.85
-104284.9695,,62482.5
-118998.1394,,-485.63
-127729.446,,-62563.44
-134545.2976,,-117703.57
-137081.5947,,-160843.46
-125998.4375,,-188116.04
-90479.05689,,-196989.36
-44544.74682,,-186463.28
6245.658546,,-157317.73
56396.08877,,-112276.09
93502.08563,,-55906.67
99539.64943,,5836.61
96722.79319,,66383.07
95880.80297,,119437.32
96611.34739,,159764.09
99310.72286,,183699.81
92680.97194,,189354.95
54227.07548,,176587.37
2196.729445,,146870.48
-50281.67966,,103137.52
-97919.05855,,49598.05
-130868.1674,,-8541.45
-138058.2765,,-65519.6
-135094.6587,,-115623.96
-128543.8095,,-153865.93
-119662.7014,,-176579.73
-103994.3968,,-181810.97
-62909.74473,,-169432.77
-8254.454524,,-141018.69
47658.61305,,-99561.54
85677.67867,,-49129.92
96584.30178,,5488.98
104206.5596,,59163.56
111765.6066,,106834.95
118770.1963,,143981.56
123834.0287,,167087.24
112336.7384,,174029.62
65673.1356,,164303.2
6116.733684,,139032.13
-54906.03207,,100788.3
-107157.2581,,53277.26
-124233.1862,,964.57
-119983.8066,,-51309.73
-113531.7074,,-98717.52
-106213.1204,,-136838.5
-98431.22642,,-162062.82
-90785.3652,,-171964.21
-59371.24006,,-165578.29
1865.476592,,-143520.02
64194.70181,,-107908.37
105285.5677,,-62118.39
119986.31,,-10421.88
129303.8582,,42412.78
136588.3364,,91515.63
139428.3044,,132295.71
136153.3715,,160819.05
107948.5992,,174185.94
50014.75513,,170873.4
-14158.26549,,150974.26
-74566.17946,,116257.55
-103528.4076,,70008.96
-102812.213,,16670.1
-99981.85634,,-38648.63
-98787.24501,,-90685.24
-98799.8961,,-134497.57
-100397.867,,-165860.96
-89867.24494,,-181604.83
-40146.23644,,-179909.37
22664.17714,,-160554.35
82810.97803,,-125068.26
126131.1175,,-76700.52
138517.0684,,-20158.3
139637.4273,,38890.04
135665.8799,,94468.57
127998.9187,,140978.06
116989.9245,,173785.73
86461.37553,,189643.75
31705.63659,,186927.46
-28521.45177,,165732.25
-77330.95614,,127872.42
-93224.07463,,76791.13
-98406.05836,,17347.82
-104897.2285,,-44566.03
-111413.5666,,-102601.2
-117490.693,,-150666.81
-116579.5912,,-183672.35
-82422.90705,,-198149.94
-28508.17484,,-192636.9
26922.7209,,-167769.95
78823.91856,,-126122.17
116375.7433,,-71864.84
124023.6162,,-10338.51
118229.597,,52418.62
111031.7541,,110179.81
103202.2063,,157088.15
94819.22922,,188253.21
77228.22752,,200325.6
32959.56945,,191946.57
-18808.50122,,163964.02
-68255.61145,,119349.18
-104074.1478,,62821.92
-118469.7888,,265.25
-127235.3384,,-61952.66
-134131.7456,,-117638.5
-136799.3369,,-161347.28
-125688.3741,,-188847.54
-90092.55053,,-197481.69
-44249.25676,,-186419.81
6492.242991,,-156780.86
56624.613,,-111577.01
93642.54399,,-55444.3
99567.99144,,5839.6
96602.00436,,65996.75
95635.87256,,118952.75
96212.05583,,159492.05
98699.31325,,183774.36
92102.91113,,189663.33
53811.28833,,176861.32
1935.705773,,146871.24
-50451.73174,,102812.24
-97967.69595,,49110.26
-130777.911,,-8920.71
-137968.7802,,-65585.33
-135070.6977,,-115363.45
-128492.3558,,-153460.16
-119629.0844,,-176284.05
-103888.0472,,-181794.13
-62628.47038,,-169676.75
-8026.46673,,-141339.57
47696.4322,,-99733.76
85487.51002,,-49032.38
96178.03647,,5797.6
103665.4238,,59485.43
111163.4059,,106960.97
118197.5446,,143824.05
123378.6343,,166734.33
112182.9137,,173689.28
65816.6785,,164174.11
6387.189792,,139183.11
-54551.57811,,101120.31
-106933.2489,,53588.9
-124303.3706,,1077.74
-120113.3126,,-51442.84
-113645.7012,,-98990.85
-106327.6954,,-137063.21
-98448.8396,,-162085.93
-90710.26334,,-171760.3
-59483.08819,,-165259.36
1594.573449,,-143261.17
63869.39453,,-107838.54
104764.772,,-62244.71
119468.6436,,-10632.5
128872.6036,,42273.17
136243.2702,,91547.78
139248.5516,,132486.95
136134.4619,,161057.92
108113.9127,,174337.18
50223.2075,,170863.19
-13971.00258,,150831.59
-74438.32748,,116088.19
-103607.3093,,69922.1
-102921.379,,16707.17
-99957.76116,,-38537.18
-98652.32988,,-90601.95
-98547.32138,,-134525.89
-100041.9825,,-166007.44
-89801.66492,,-181793.48
-40397.78297,,-180031.19
22472.57799,,-160538.92
82691.21739,,-124929.95
125971.4366,,-76528.94
138375.3137,,-20059.37
139628.8889,,38864.06
135861.1895,,94353.88
128309.7867,,140875.87
117336.5107,,173794.81
86636.16617,,189792.32
31699.51221,,187148.7
-28663.29594,,165900.62
-77453.57781,,127879.2
-93072.70862,,76612.59
-98128.94143,,17063.11
-104615.2836,,-44819.2
-111088.617,,-102706.49
-117082.5949,,-150596.1
-116370.4683,,-183499
-82581.29151,,-198000.84
-28534.05816,,-192613.34
27011.23381,,-167885.93
78982.39243,,-126297.49
116610.5707,,-71976.19
124222.9491,,-10296.43
118437.6917,,52614.1
111139.3107,,110437.99
103292.0603,,157280.35
94801.92897,,188285.94
77066.40089,,200189.97
32780.66609,,191715.85
-19073.81643,,163743.89
-68549.84981,,119213.84
-103878.2571,,62775.85
-117918.8183,,252.35
-126682.8032,,-62001.83
-133588.4194,,-117754.2
-136435.8081,,-161497.6
-125445.813,,-188959.1
-89763.30933,,-197489.38
-43895.78627,,-186312.01
6864.44424,,-156610.14
56960.55972,,-111428.9
93811.7914,,-55384.35
99670.36243,,5806.14
96517.69358,,65926.41
95436.76322,,118925.02
95902.79709,,159555.12
98293.22675,,183910.24
91819.49101,,189795.28
53637.21295,,176900.08
1754.433126,,146771.62
-50614.13951,,102605.03
-98005.91743,,48889.18
-130595.2526,,-9049.89
-137823.8514,,-65563.14
-135057.0184,,-115207.97
-128513.4558,,-153253.31
-119684.785,,-176122.18
-103855.6819,,-181733.18
-62445.85662,,-169704.28
-7868.037566,,-141388.63
47619.40809,,-99727.92
85305.16449,,-48933.07
95815.62529,,5969.68
103167.7846,,59666.05
110615.2964,,107082.92
117626.5469,,143856.13
122864.5888,,166695.05
111874.6384,,173629.13
65791.37633,,164140.22
6453.976804,,139190.2
-54386.80105,,101146.13
-106784.1627,,53595.21
-124329.3881,,1040.99
-120202.2726,,-51512.61
-113723.3065,,-99055.6
-106422.288,,-137082.76
-98456.5286,,-162046
-90615.98368,,-171683.42
-59531.99381,,-165190.94
1401.946116,,-143239.61
63625.08996,,-107869.45
104361.2336,,-62296.47
118973.4631,,-10656.66
128394.6339,,42309.74
135806.2042,,91640.04
138996.2451,,132593.38
136031.6886,,161126.15
108262.9989,,174337.16
50414.71725,,170806.39
-13790.04285,,150763.42
-74321.42786,,116058.09
-103659.8359,,69950.34
-103035.4623,,16770.08
-99927.18398,,-38493.48
-98508.78698,,-90627.14
-98299.57465,,-134631.95
-99663.07576,,-166157.29
-89779.22377,,-181919.88
-40647.40725,,-180074.82
22399.04075,,-160482.62
82643.07173,,-124808.1
125809.61,,-76406.31
138204.904,,-19992.04
139576.6752,,38861.52
135935.7549,,94315.35
128391.1918,,140860.53
117437.2277,,173848.34
86697.58877,,189915.98
31764.7346,,187294.83
-28618.86068,,165996.92
-77453.17548,,127867.14
-92942.21913,,76477.58
-97866.62136,,16840.13
-104243.0376,,-45065.79
-110670.3711,,-102915.1
-116650.8933,,-150732.84
-116102.8285,,-183562.87
-82571.68026,,-198009.95
-28386.22372,,-192584.86
27309.89782,,-167824.43
79415.92686,,-126198.7
116969.0033,,-71841.16
124397.5609,,-10143.28
118633.6271,,52751.7
111321.1198,,110526.77
103475.5681,,157307.6
94880.24949,,188269.59
76908.73169,,200169.67
32406.27437,,191728.71
-19568.90757,,163799.57
-68968.6768,,119285.23
-103761.5363,,62813.26
-117519.9291,,214.03
-126315.7876,,-62120.58
-133285.4638,,-117911.77
-136260.794,,-161623.58
-125315.6811,,-188989.81
-89534.8298,,-197401.39
-43613.57315,,-186134.46
7092.789661,,-156408.72
57123.45923,,-111271.11
93933.38489,,-55305.89
99795.71102,,5814.97
96521.94041,,65907.96
95306.22903,,118924.63
95641.72872,,159593.08
97908.1509,,183971.92
91466.24404,,189843.88
53363.94052,,176902.31
1558.408327,,146719.49
-50781.15175,,102520.53
-98066.58007,,48810.08
-130474.2402,,-9092.69
-137723.7156,,-65561.82
-135100.9619,,-115177.68
-128625.3933,,-153217.51
-119844.9129,,-176094.42
-103875.6196,,-181708.64
-62251.57526,,-169666.65
-7722.393599,,-141327.36
47608.0981,,-99652.9
85090.67715,,-48875.41
95440.78653,,5973.13
102707.2045,,59595.4
110107.8671,,106950.6
117084.1595,,143704.04
122353.4044,,166574.06
111564.9774,,173572.41
65707.6914,,164146.49
6513.074817,,139227.15
-54191.80443,,101171.71
-106593.6365,,53583.58
-124354.6902,,997.04
-120281.8448,,-51559.17
-113756.7894,,-99072.42
-106454.6533,,-137058.82
-98422.06221,,-162001.72
-90507.3989,,-171659.86
-59624.44063,,-165224.4
1146.644491,,-143337.48
63336.75245,,-108002.63
103850.541,,-62413.76
118381.0971,,-10712.88
127838.299,,42328.67
135310.8895,,91710.08
138661.9078,,132667.59
135856.0039,,161162.77
108381.776,,174323.61
50563.71398,,170764.84
-13644.26477,,150735.07
-74211.18906,,116075.91
-103652.0128,,70017.01
-103031.9307,,16854.08
-99840.50391,,-38441.59
-98318.1266,,-90648.17
-97972.211,,-134736.53
-99251.31193,,-166321.01
-89642.4758,,-182096.1
-40810.53028,,-180216.56
22205.92167,,-160560.59
82484.95549,,-124816.32
125546.5747,,-76355.26
137893.9465,,-19897.03
139413.731,,38987.97
135939.2865,,94462.79
128473.4015,,141014.88
117591.41,,173988.3
86921.73206,,190017.31
31948.64475,,187341.54
-28503.34686,,165992.09
-77330.86673,,127834.65
-92675.11579,,76451.07
-97472.24718,,16844.09
-103770.7453,,-45031.58
-110159.7232,,-102876.98
-116129.8741,,-150727.88
-115828.1703,,-183614.06
-82670.83259,,-198106.88
-28414.02929,,-192682.23
27367.2971,,-167861.53
79538.59324,,-126130.33
117117.0166,,-71663.35
124505.1622,,-9899.12
118778.0194,,52990.03
111382.453,,110690.54
103489.5156,,157361.44
94799.87261,,188223.45
76800.63865,,200067.91
32253.16492,,191623.85
-19749.15203,,163726.06
-69069.08084,,119247.18
-103497.0258,,62790.59
-117028.5931,,181.01
-125801.7422,,-62176.97
-132826.3143,,-117984.16
-135900.2603,,-161690.05
-125066.2357,,-189027.45
-89243.00542,,-197398.04
-43203.55275,,-186091.89
7508.219183,,-156337.38
57492.44183,,-111182.45
94078.85004,,-55209.1
99825.12591,,5909.56
96411.5228,,65982.89
95046.36765,,118953.83
95262.73254,,159549.81
97486.82052,,183843.81
91131.23609,,189646.23
53093.48441,,176679.63
1282.096062,,146530.82
-51009.81009,,102413.92
-98151.6061,,48799.34
-130326.0482,,-9035.46
-137534.4858,,-65492.15
-135099.6655,,-115149.76
-128770.7244,,-153255.49
-120058.8638,,-176180.28
-103964.6243,,-181793.55
-62169.54436,,-169699.84
-7720.203128,,-141286.07
47548.15072,,-99556.57
84867.74085,,-48775.96
95065.72426,,6019.23
102306.7954,,59557.58
109680.0547,,106840.1
116608.6038,,143567.07
121846.0198,,166466.89
111276.2822,,173532.98
65619.53612,,164178.13
6501.362503,,139302.17
-54112.41104,,101250.8
-106465.7398,,53638.43
-124413.1177,,1022.91
-120398.208,,-51546.9
-113823.7552,,-99053.58
-106480.5366,,-137024.71
-98363.50064,,-161961.86
-90396.62366,,-171635.63
-59696.36854,,-165234.4
946.5516742,,-143384.61
63078.85803,,-108070.93
103381.2885,,-62476.56
117823.5552,,-10746.59
127292.2012,,42333.86
134842.6205,,91748.66
138309.2419,,132725.82
135692.7914,,161228.69
108599.929,,174392.46
50883.61214,,170836.84
-13329.86514,,150808.07
-73960.98363,,116139.52
-103613.8807,,70053.97
-103046.0123,,16849.2
-99745.28548,,-38490.22
-98108.24372,,-90723.68
-97641.31578,,-134808.6
-98789.88252,,-166360.1
-89508.45474,,-182089.01
-41037.31108,,-180173.53
22070.69362,,-160509.13
82409.04896,,-124784.59
125308.3945,,-76354.52
137613.298,,-19913.83
139256.7771,,38984.62
135866.0174,,94502.88
128374.7409,,141107.78
117547.1088,,174113.66
87005.90873,,190131.98
32055.35198,,187399.23
-28439.42087,,165965.15
-77275.25559,,127726.62
-92445.921,,76293.64
-97083.28212,,16681.06
-103220.3112,,-45164.11
-109542.0551,,-102963.92
-115503.6229,,-150775.93
-115447.386,,-183641.83
-82631.85115,,-198131.11
-28284.16565,,-192708.56
27613.07688,,-167883.67
79881.82663,,-126136.54
117368.6078,,-71644.73
124548.7928,,-9854.71
118837.8774,,53053.48
111431.001,,110762.02
103535.5155,,157428.89
94775.28569,,188274.25
76675.51359,,200087.8
32042.52208,,191597.28
-20112.50199,,163640.79
-69383.8381,,119102.22
-103235.868,,62603.25
-116517.7216,,-12.64
-125316.7093,,-62331.33
-132388.6672,,-118060.51
-135580.8092,,-161672.85
-124786.5259,,-188931.88
-88864.32217,,-197263.9
-42848.74116,,-185965.97
7806.302048,,-156252.76
57735.04767,,-111145.17
94201.82934,,-55198.88
99842.69438,,5925.19
96331.81647,,66028.83
94860.40114,,119032.75
94928.70807,,159639.91
96951.45153,,183909.74
90576.59991,,189656.82
52642.56032,,176622.99
991.1210526,,146419.55
-51220.76586,,102278.89
-98256.21227,,48676.48
-130211.3837,,-9118.19
-137378.7835,,-65521.81
-135032.3868,,-115127.98
-128703.7139,,-153193.33
-120009.6452,,-176092.66
-103869.54,,-181696.3
-61965.24942,,-169609.11
-7499.636114,,-141217.81
47621.19622,,-99523.76
84704.3496,,-48783.73
94696.83107,,5977.91
101814.9229,,59501.71
109135.7004,,106794.32
116045.0716,,143550.98
121344.3573,,166485.17
110955.4006,,173571.99
65585.29324,,164211.81
6622.508958,,139304.99
-53839.58564,,101211.59
-106207.6218,,53567.68
-124395.5492,,949.2
-120446.1748,,-51589.99
-113859.518,,-99044.09
-106506.3306,,-136964.07
-98316.60668,,-161875.89
-90275.65602,,-171563.9
-59774.42083,,-165212.99
768.8106023,,-143430.05
62876.88766,,-108172.64
102983.785,,-62601.11
117326.9889,,-10851.48
126787.9905,,42283.14
134364.5614,,91765.6
137981.6101,,132799.27
135528.9084,,161329.29
108761.1745,,174485.98
51175.79415,,170898
-13102.36908,,150828.98
-73800.36399,,116129.46
-103618.0381,,70031
-103085.7537,,16828.29
-99675.54804,,-38506.64
-97924.69119,,-90747.82
-97343.23291,,-134860.51
-98395.64245,,-166455.17
-89378.85933,,-182225.86
-41205.70912,,-180329.05
21915.25959,,-160644.07
82249.09988,,-124858.22
125025.2873,,-76341.86
137319.6408,,-19817.25
139102.0136,,39135.58
135881.5743,,94663.88
128468.7523,,141238.51
117674.1562,,174193.97
87134.9677,,190167.33
32144.44603,,187412.9
-28375.00314,,165981.71
-77210.25672,,127755.83
-92226.02454,,76323.83
-96744.02735,,16685.81
-102799.8302,,-45209.47
-109075.6636,,-103064.97
-114988.7729,,-150910.84
-115152.9241,,-183767
-82763.45822,,-198198.49
-28359.13341,,-192686
27673.11366,,-167768.48
80019.55807,,-125955.65
117414.6971,,-71442.27
124532.476,,-9673.65
118852.3166,,53186.49
111431.5821,,110842.25
103545.6632,,157468.59
94715.69594,,188291.71
76549.27093,,200096.8
31907.33873,,191602.09
-20366.2837,,163637.5
-69588.62479,,119083.96
-102866.1702,,62565.46
-115924.7298,,-69.62
-124769.0022,,-62402.12
-131870.6431,,-118135.69
-135191.3524,,-161739.69
-124518.2603,,-188975.12
-88588.85927,,-197268.08
-42583.24714,,-185920.45
8064.464696,,-156158.28
57976.3124,,-111018.25
94313.76687,,-55070.27
99849.80224,,6019.85
96211.11705,,66063.18
94619.80696,,119001.98
94578.63505,,159564.2
96509.37873,,183825.54
90283.97087,,189599.34
52479.92903,,176608.63
838.6821555,,146437.97
-51324.61206,,102299.69
-98255.72053,,48667.48
-129978.9256,,-9170.81
-137158.3059,,-65603.06
-134958.179,,-115199.79
-128683.1503,,-153213.97
-120019.8823,,-176039.59
-103782.3682,,-181579.68
-61774.36552,,-169468.41
-7384.077595,,-141102.95
47576.0904,,-99471.09
84473.05375,,-48799.75
94263.02841,,5916.56
101235.7892,,59432.87
108498.4074,,106748.87
115387.2598,,143537.73
120768.0846,,166490.06
110659.2847,,173570.92
65576.62077,,164188.36
6716.07336,,139261.78
-53705.29636,,101168.4
-106060.458,,53547.93
-124313.8312,,963.7
-120416.7152,,-51551.71
-113822.6377,,-99008.9
-106480.7602,,-136959.85
-98239.35905,,-161914.72
-90113.65057,,-171634.43
-59811.34591,,-165286.55
574.3504255,,-143477.08
62579.25184,,-108179.52
102438.0895,,-62577.21
116714.8193,,-10822.12
126234.4272,,42293.43
133862.1836,,91749.37
137605.7431,,132771.87
135294.3939,,161320.36
108799.3513,,174521.39
51297.38764,,170982.96
-12957.35096,,150942.32
-73650.78612,,116232.69
-103561.0859,,70087.43
-103052.2261,,16821.36
-99538.93418,,-38565.78
-97682.35358,,-90827.36
-97004.51458,,-134925.28
-97916.37634,,-166484.28
-89211.08713,,-182220.95
-41423.1916,,-180309.33
21782.49023,,-160631.88
82145.92423,,-124863.98
124724.4328,,-76357.26
136987.0468,,-19820.09
138884.9335,,39167.9
135821.8504,,94740.32
128484.6221,,141347.54
117763.3396,,174307.43
87303.41045,,190252.49
32228.66741,,187446.06
-28331.41724,,165956.69
-77137.03241,,127683.7
-91982.25641,,76225.54
-96382.91256,,16582.33
-102377.9633,,-45304.24
-108629.0757,,-103145.99
-114492.9665,,-150978.8
-114806.3379,,-183823.39
-82778.03156,,-198242.03
-28302.27057,,-192712.04
27795.95885,,-167770.92
80229.30684,,-125929.98
117641.5226,,-71388
124645.9782,,-9595.56
118988.2152,,53278.22
111492.3789,,110932.86
103567.1656,,157540.5
94660.88947,,188327.69
76384.44917,,200084.27
31695.17597,,191537.48
-20634.63874,,163528.68
-69805.92845,,118948.96
-102596.3846,,62427.16
-115411.6679,,-190.86
-124242.4398,,-62494.53
-131371.931,,-118197.74
-134820.984,,-161776.47
-124339.0887,,-188991.43
-88401.10462,,-197262.65
-42308.6336,,-185885.11
8359.775944,,-156083.37
58226.69664,,-110901.86
94393.4732,,-54925.93
99858.16179,,6161.99
96099.26893,,66163.89
94376.03883,,119026.83
94205.1821,,159497.7
96007.71618,,183678.89
89815.92534,,189407.8
52059.49271,,176419.21
469.1631161,,146292.69
-51628.8193,,102221.58
-98444.81628,,48654.93
-129847.0503,,-9139.55
-136923.4338,,-65558.04
-134818.4359,,-115165.75
-128567.2341,,-153200.93
-119946.2557,,-176040.95
-103703.6453,,-181577.94
-61591.84117,,-169445.27
-7215.724256,,-141049.26
47593.83769,,-99392.52
84250.02804,,-48715.94
93831.95267,,5978.88
100668.5913,,59450.17
107884.9414,,106710.66
114756.0018,,143451.92
120184.6147,,166381.69
110366.7897,,173474.06
65541.03679,,164134
6788.135384,,139266.31
-53533.90319,,101227.38
-105837.7452,,53638.09
-124269.9771,,1052.65
-120443.8055,,-51491.97
-113818.3014,,-98990.65
-106455.2792,,-136975.41
-98153.26013,,-161941.39
-89957.99303,,-171646.05
-59862.3973,,-165266.2
400.8114816,,-143424.73
62402.80716,,-108111.14
102028.2927,,-62516.03
116190.0897,,-10786.72
125705.9426,,42298.18
133369.9087,,91734.15
137252.4514,,132756.99
135099.5314,,161325.33
108986.1225,,174555.36
51599.49381,,171040.49
-12719.4837,,151005.99
-73486.14317,,116280.72
-103516.7847,,70102.31
-103051.779,,16795.84
-99436.56319,,-38627.31
-97466.92746,,-90911.63
-96676.52508,,-135015.03
-97483.73598,,-166563.14
-89058.82705,,-182276.99
-41578.62563,,-180337.04
21658.66156,,-160632.65
81995.13936,,-124845.15
124424.2489,,-76329.63
136677.5199,,-19794.07
138688.0146,,39186.49
135765.8816,,94752.76
128485.6055,,141361.32
117811.0829,,174331.33
87430.68128,,190289.41
32323.12588,,187487.4
-28269.3688,,165981.77
-77063.31635,,127666.15
-91734.19675,,76144.6
-96000.51892,,16434.15
-101844.3378,,-45501.1
-108025.8915,,-103354.34
-113881.4227,,-151155.03
-114458.2319,,-183932.98
-82897.43458,,-198271.25
-28318.94497,,-192670.61
27916.79238,,-167684.91
80484.07203,,-125828.77
117783.188,,-71292.25
124565.646,,-9511.83
118929.0278,,53354.27
111462.3828,,111007.48
103561.7117,,157612.84
94602.10438,,188386.03
76265.44848,,200109.64
31500.8052,,191512.53
-20928.65359,,163446.89
-70062.79469,,118819.42
-102263.2095,,62272.66
-114853.0531,,-341.08
-123715.8327,,-62613.78
-130884.1712,,-118268.58
-134472.7885,,-161793.05
-124092.549,,-188957.87
-88102.79824,,-197189.35
-41965.89195,,-185785.24
8648.158151,,-155970.44
58506.09344,,-110788.22
94520.07348,,-54821.41
99933.71069,,6251.39
96044.95419,,66236.67
94188.5524,,119084.9
93894.31404,,159543.53
95567.2527,,183712.06
89521.91049,,189423.18
51953.90307,,176408.72
352.8893415,,146250.53
-51738.65577,,102150.57
-98446.64913,,48570.14
-129646.1528,,-9212.92
-136725.6208,,-65592.9
-134768.9938,,-115144.09
-128588.2447,,-153122.35
-120028.5101,,-175924.06
-103684.1993,,-181453.2
-61338.28298,,-169342.39
-6954.253549,,-140985.03
47580.51605,,-99365.12
84008.80802,,-48708.41
93380.49214,,5988.03
100049.3586,,59474.9
107176.7935,,106750.2
113965.6441,,143492.16
119381.9635,,166404.02
109794.3616,,173466.96
65292.17247,,164100.88
6720.588412,,139225.49
-53428.13473,,101204.02
-105628.5775,,53652.01
-124130.2787,,1108.03
-120353.2362,,-51410.24
-113722.1442,,-98912.18
-106277.1358,,-136933.44
-97903.72525,,-161960.4
-89702.7361,,-171732.83
-59935.35339,,-165407.55
190.0345314,,-143592.12
62112.94974,,-108270.28
101475.8916,,-62637.66
115549.6228,,-10855.13
125125.4231,,42281.5
132865.2958,,91752.7
136930.0946,,132786.29
134969.4443,,161342.43
109184.9636,,174547.32
51904.95275,,171008.56
-12425.29004,,150963.52
-73242.37505,,116245.49
-103523.7138,,70086.33
-103137.0286,,16797.45
-99433.21042,,-38624.85
-97344.12698,,-90933.44
-96447.37499,,-135082.3
-97177.11475,,-166680.67
-88923.33077,,-182426.94
-41706.65642,,-180482.69
21498.84659,,-160731.52
81863.53229,,-124865.94
124188.7509,,-76265.35
136472.4203,,-19665.12
138606.2072,,39340.8
135862.2176,,94890.35
128730.4465,,141453.44
118103.1755,,174371.38
87666.35807,,190290.8
32406.632,,187472.5
-28230.78969,,165968.25
-77045.9714,,127657.89
-91604.64604,,76131.53
-95761.13173,,16400.42
-101576.0275,,-45565.68
-107750.7863,,-103445.93
-113553.5227,,-151255.03
-114208.3394,,-184014.94
-82951.43639,,-198311.65
-28289.843,,-192657.86
28046.03017,,-167622.22
80647.46328,,-125730.39
118084.8918,,-71175.86
124917.4178,,-9391.67
119319.2445,,53470.05
111727.4298,,111114.59
103702.7512,,157706.27
94665.35981,,188456.71
76140.68105,,200145.21
31290.07295,,191502.2
-21177.60732,,163387.81
-70231.28214,,118720.78
-102063.7425,,62154.87
-114478.7508,,-452.23
-123301.2078,,-62695.3
-130479.0682,,-118307.13
-134179.2207,,-161787.38
-123943.4628,,-188916.25
-87916.38469,,-197123.86
-41693.11126,,-185706.16
8908.51127,,-155883.56
58731.35432,,-110695.88
94615.33661,,-54726.06
99966.97008,,6343.91
95973.74153,,66316.18
93980.68118,,119139.27
93578.17096,,159562.96
95127.01274,,183693.08
89052.21093,,189370.28
51532.30447,,176332.73
27.0009073,,146164.97
-51959.17809,,102067.65
-98557.29026,,48498.55
-129505.158,,-9268.03
-136541.4872,,-65628.37
-134699.9269,,-115157.45
-128567.2788,,-153111.9
-120000.8833,,-175890.64
-103597.9216,,-181402.34
-61291.92547,,-169284.96
-6974.146601,,-140935.22
47560.57829,,-99335.89
83854.98331,,-48706.39
93113.83583,,5965.56
99712.29431,,59439.01
106838.7457,,106715.22
113646.1036,,143468.73
119146.4656,,166393.63
109761.5939,,173460.94
65412.73778,,164084.84
6875.441298,,139187.11
-53253.4335,,101140.7
-105529.0229,,53574.28
-124217.4058,,1036.77
-120491.5935,,-51451.78
-113848.6998,,-98908.09
-106466.8127,,-136881.99
-98074.49258,,-161874.9
-89706.35709,,-171636.06
-59985.01897,,-165322.42
25.65980263,,-143532.74
61875.70833,,-108237.34
101077.673,,-62619.75
115063.1148,,-10834.91
124619.8266,,42319.39
132346.1541,,91815.43
136525.9303,,132870.67
134720.1329,,161436.83
109235.2997,,174636.36
52116.31085,,171078.25
-12243.03391,,151005.1
-73107.05758,,116257.12
-103466.6274,,70072.78
-103097.7789,,16768.16
-99301.37984,,-38658.53
-97073.04502,,-90961.65
-96089.52356,,-135099.59
-96673.03821,,-166687.59
-88741.07465,,-182429.25
-42008.94141,,-180487.83
21304.11819,,-160743.25
81693.212,,-124879.74
123789.504,,-76267.21
136060.7011,,-19635.6
138315.0087,,39418.02
135667.8469,,95018.87
128484.2197,,141618.29
117879.6134,,174540.62
87622.81688,,190425.33
32474.13426,,187540.39
-28148.71408,,165957.41
-76898.13696,,127581.03
-91294.89556,,76020.67
-95331.66532,,16293.18
-100992.3787,,-45641.59
-107092.4827,,-103482.64
-112871.4368,,-151264.36
-113785.7126,,-184018.48
-83014.82594,,-198326.67
-28266.28426,,-192686.35
28197.35148,,-167649
80909.55984,,-125730.94
118216.4989,,-71129.81
124763.6825,,-9294.89
119163.587,,53600.92
111598.3709,,111247.32
103614.1936,,157805.12
94546.13561,,188495.55
76006.30236,,200115.74
31131.64379,,191414.23
-21465.45308,,163262.81
-70469.99877,,118582.71
-101618.6299,,62022.83
-113808.5114,,-566.9
-122679.3823,,-62787.7
-129876.5546,,-118375.49
-133694.7243,,-161830.38
-123645.6482,,-188932.34
-87593.31257,,-197112.3
-41326.67677,,-185668.4
9232.343344,,-155823.93
59044.14464,,-110621.44
94715.65124,,-54646.32
99901.65828,,6416.89
95809.63502,,66367.79
93696.41169,,119153.56
93184.28852,,159526.16
94608.18405,,183599.11
88677.6851,,189225.88
51368.10855,,176159.06
-96.69364651,,145993.26
-52109.2477,,101929.49
-98622.73617,,48414.54
-129242.525,,-9295.82
-136205.6746,,-65615.84
-134506.3161,,-115129.59
-128483.9515,,-153089.82
-119960.5161,,-175881.4
-103510.2133,,-181397.51
-61117.76067,,-169268.91
-6810.665943,,-140898.66
47559.05838,,-99286.55
83599.99461,,-48669.71
92686.8728,,5957.6
99222.56758,,59365.81
106315.089,,106582.68
113078.1905,,143312.38
118559.4193,,166266.57
109378.2168,,173411.3
65286.49512,,164133.56
6889.657007,,139317.48
-53137.33854,,101305.36
-105366.1681,,53716.55
-124171.1377,,1115.8
-120498.0755,,-51444.53
-113824.7387,,-98948.98
-106414.2414,,-136931.09
-97976.27902,,-161898.57
-89545.0669,,-171624.22
-60103.93025,,-165291.56
-238.7166308,,-143514.03
61563.49916,,-108257.01
100528.2224,,-62682.96
114411.1144,,-10921.72
123994.1566,,42244.25
131734.2081,,91784.95
136047.156,,132899.9
134402.2911,,161517.34
109316.3025,,174742.71
52267.85568,,171181.62
-12123.18386,,151085.87
-72969.86258,,116309.5
-103338.7754,,70100.2
-103000.9512,,16774.11
-99129.62903,,-38677.32
-96818.41395,,-91014.16
-95732.20858,,-135192.22
-96195.11321,,-166814.06
-88521.357,,-182566.11
-42172.64559,,-180600.08
21124.67839,,-160798.49
81530.62541,,-124863.49
123434.1113,,-76190.81
135655.017,,-19531.38
138039.2329,,39512.47
135580.2727,,95079.13
128537.3722,,141644.19
118011.2652,,174553.57
87890.81429,,190452.93
32685.84999,,187596.75
-27973.29759,,166030.38
-76767.11104,,127634.07
-91059.6211,,76009.48
-94990.04125,,16188.92
-100530.3682,,-45834.45
-106579.4208,,-103723.56
-112334.3244,,-151490.95
-113432.6891,,-184171.25
-83106.28928,,-198372.19
-28300.92946,,-192628.14
28283.09277,,-167521.47
81054.62266,,-125580.69
118301.4802,,-70994.33
124754.3394,,-9189.34
119194.2983,,53683.19
111641.5544,,111322.47
103663.7251,,157882.81
94557.4903,,188568.61
75938.9789,,200161.21
31019.70625,,191404.93
-21633.62761,,163182.78
-70591.14523,,118438.05
-101317.6413,,61842.18
-113356.112,,-742.36
-122246.0714,,-62919.57
-129472.8821,,-118441.28
-133422.9271,,-161828.73
-123497.4561,,-188878.9
-87451.02137,,-197029.65
-41132.08248,,-185575.7
9404.541183,,-155731.23
59220.14227,,-110530.37
94847.88416,,-54555.29
100041.0885,,6506.79
95846.06836,,66449.78
93602.22144,,119216.29
92984.24041,,159558.03
94250.0644,,183593.09
88301.59465,,189182.57
51025.2775,,176086.94
-357.8961322,,145906.66
-52278.94214,,101845.45
-98676.9168,,48349.52
-129136.7566,,-9328.85
-136134.596,,-65609.98
-134575.0701,,-115085.81
-128605.3215,,-153017.33
-120108.9317,,-175795.52
-103504.0442,,-181314.9
-60942.523,,-169201.55
-6693.989836,,-140849.17
47553.47044,,-99247.51
83498.6518,,-48628.24
92485.6624,,6011.57
98923.50124,,59431.68
105977.6224,,106646.14
112700.7589,,143349.86
118209.6145,,166256.02
109202.398,,173344.4
65299.19091,,164023.05
6974.370119,,139195.12
-52969.56634,,101210.25
-105208.8565,,53678.81
-124341.6368,,1143.02
-120765.1789,,-51371.26
-114061.9354,,-98867.23
-106605.3488,,-136880.78
-98119.15137,,-161904.85
-89565.31758,,-171687.24
-60138.08371,,-165387.83
-357.4938008,,-143608.11
61427.73466,,-108317.6
100306.8507,,-62695.75
114132.4328,,-10893.46
123694.0174,,42291.49
131459.371,,91825.46
135886.9387,,132915.95
134359.9569,,161505.44
109439.4606,,174712.42
52566.87731,,171148.77
-11791.48397,,151064.16
-72760.15851,,116304.47
-103474.7634,,70107.71
-103204.352,,16782.83
-99233.34113,,-38681.27
-96796.50924,,-91042.55
-95606.14474,,-135251.22
-96009.10199,,-166902.06
-88508.75062,,-182672.88
-42368.89391,,-180707.39
20913.09678,,-160883.03
81352.83963,,-124902.38
123209.968,,-76168.86
135497.0348,,-19447.72
137985.8569,,39641.65
135667.8916,,95223.96
128745.4222,,141770.27
118258.1178,,174633.77
88065.96256,,190476.64
32726.61957,,187572.33
-27933.6903,,165979.46
-76754.72817,,127580.45
-90939.1899,,75968.03
-94747.25661,,16160.19
-100218.7848,,-45861.45
-106236.0086,,-103761.99
-111933.2894,,-151545.58
-113126.1573,,-184232.5
-83152.51269,,-198418.31
-28309.0655,,-192634.55
28364.09549,,-167472.41
81237.95166,,-125477.29
118455.8861,,-70854.98
124770.7456,,-9042.38
119228.4965,,53810.38
111653.4456,,111412.68
103660.3723,,157932.18
94523.78387,,188583.3
75837.63609,,200150.35
30885.68519,,191374.46
-21891.075,,163133.6
-70778.94459,,118368.98
-100908.8279,,61755.35
-112756.7724,,-837.48
-121653.2584,,-63006.36
-128883.7795,,-118500.55
-132943.348,,-161845.4
-123241.3498,,-188847.42
-87215.38928,,-196955.57
-40834.75957,,-185473.08
9684.608541,,-155617.68
59453.98622,,-110422.32
94893.2582,,-54465.28
99969.7864,,6570.44
95695.3282,,66482.26
93322.01997,,119215.91
92585.88762,,159526.72
93741.65162,,183537.17
87897.69863,,189112.4
50802.96705,,176014.87
-560.402937,,145843.52
-52473.1341,,101797.66
-98862.52569,,48318.45
-128941.0447,,-9344.67
-135780.5444,,-65611.07
-134327.7704,,-115069.03
-128450.3792,,-152976.58
-119993.1943,,-175726.23
-103349.1466,,-181220.13
-60761.25035,,-169095.97
-6499.484956,,-140757.53
47593.07773,,-99197.06
83250.41333,,-48637.84
92025.75291,,5940.64
98311.37637,,59318.2
105311.4063,,106522.83
111997.8859,,143250.89
117531.7308,,166203.63
108756.6148,,173340.83
65132.62571,,164051.53
6962.791915,,139229.2
-52819.0944,,101226.85
-104933.483,,53668.7
-124052.5394,,1113.83
-120510.369,,-51400.46
-113840.1167,,-98876.65
-106418.8458,,-136860.56
-97923.30538,,-161860.38
-89305.59031,,-171637.1
-60110.05463,,-165355.59
-522.3155644,,-143611.96
61071.22434,,-108362.47
99621.41211,,-62770.87
113345.0703,,-10975.81
122973.3524,,42229.55
130770.6244,,91807.53
135337.354,,132954.45
134006.2629,,161597.99
109549.2523,,174842.19
52784.35979,,171288.67
-11650.8915,,151183.72
-72597.16959,,116378.06
-103305.1137,,70121.82
-103065.2348,,16740.18
-99041.42905,,-38762.59
-96498.15816,,-91135.36
-95207.43432,,-135328.97
-95482.45019,,-166948.39
-88207.22559,,-182686.92
-42436.57499,,-180702.08
20860.8831,,-160876.88
81306.21389,,-124908.38
122856.4975,,-76185.87
135052.7269,,-19459.05
137657.5992,,39661.12
135464.9377,,95294.95
128562.6296,,141896.66
118124.9014,,174796.71
88129.84385,,190638.75
32831.22573,,187690.66
-27847.18905,,166021.63
-76628.70903,,127536.86
-90660.32954,,75854.63
-94361.64431,,16010.91
-99697.76567,,-46008.75
-105657.5454,,-103879.51
-111331.1781,,-151623.09
-112714.7511,,-184275.85
-83153.00443,,-198440.83
-28234.23186,,-192646.46
28610.59053,,-167474.2
81562.90133,,-125460.25
118721.5589,,-70808.16
124894.619,,-8961.89
119378.7449,,53915.22
111770.3005,,111519.64
103705.0758,,158013.19
94522.53217,,188614.75
75645.90283,,200121.85
30560.3779,,191291.95
-22287.23732,,163015.78
-70998.39401,,118239.2
-100711.1491,,61632.98
-112412.8237,,-942.12
-121273.1893,,-63091.78
-128509.9689,,-118569.45
-132671.4614,,-161898.79
-122989.0881,,-188880.82
-86865.00333,,-196959.53
-40370.15621,,-185437.75
10162.80176,,-155539.13
59896.01432,,-110307.43
95140.42379,,-54332.77
100112.4799,,6693.76
95725.19013,,66568.59
93196.31376,,119244.46
92340.68898,,159489.67
93385.72244,,183441.74
87587.45642,,188978.42
50512.21556,,175868.95
-864.1184406,,145711.84
-52720.34439,,101699.49
-98990.37766,,48262.4
-128818.9595,,-9361
-135634.5428,,-65598.18
-134311.8112,,-115040.59
-128500.1342,,-152944.25
-120062.1271,,-175696.02
-103298.0059,,-181191.61
-60570.00882,,-169064.35
-6345.704954,,-140717.82
47608.54514,,-99148.46
83084.65279,,-48586.21
91695.30472,,5983.36
97861.21224,,59337.87
104812.1577,,106508.9
111470.9659,,143201.72
117039.903,,166128.99
108480.6601,,173260.29
65089.21863,,163988.77
7037.983184,,139204.31
-52715.11408,,101249.39
-104830.3073,,53734.16
-124071.3595,,1205
-120586.8567,,-51307.75
-113899.3041,,-98805.46
-106444.8633,,-136825.42
-97919.46088,,-161863.25
-89206.30386,,-171667.9
-60176.08168,,-165396.83
-706.5833457,,-143645.56
60812.79347,,-108375.82
99156.71935,,-62760.11
112797.989,,-10945.19
122450.2769,,42271.47
130269.6771,,91852.93
134970.2489,,133000.21
133796.9612,,161646.68
109630.7915,,174899.89
52918.55966,,171360.4
-11563.18326,,151268.96
-72514.82576,,116468.34
-103269.4403,,70201.92
-103043.5983,,16792.69
-98940.13094,,-38750.93
-96274.73012,,-91168.18
-94885.88213,,-135397.92
-95019.94789,,-167035.12
-88041.10742,,-182768.71
-42714.45188,,-180759.01
20683.14203,,-160897.75
81216.6281,,-124893.05
122548.6246,,-76143.38
134714.6791,,-19402.62
137442.6648,,39719.82
135406.3762,,95349.55
128634.6023,,141946.32
118252.5299,,174842.84
88307.80844,,190680.27
32859.34423,,187720.41
-27869.67491,,166026.29
-76580.56338,,127500.92
-90409.90059,,75767.13
-93994.94159,,15871.97
-99259.00093,,-46184.66
-105205.8167,,-104065.54
-110832.5554,,-151786.89
-112328.1106,,-184388.94
-83182.59814,,-198486.75
-28229.09096,,-192624.63
28723.46684,,-167398.02
81764.73758,,-125350.5
118852.2272,,-70684.92
124905.0349,,-8838.48
119411.9149,,54033.6
111766.9924,,111632.53
103636.8136,,158118.81
94413.9921,,188704.93
75549.388,,200181.11
30497.07776,,191301.9
-22470.83455,,162963.23
-71159.95242,,118124.38
-100192.4992,,61473.76
-111706.3745,,-1112.74
-120613.7235,,-63234.53
-127877.5487,,-118650.94
-132161.7075,,-161902.09
-122744.4259,,-188810.3
-86652.61706,,-196838
-40115.39103,,-185297.19
10350.10938,,-155409.06
60050.10725,,-110205.61
95118.7873,,-54261.75
99954.27429,,6743.44
95486.11587,,66610.73
92822.95022,,119288.89
91867.23433,,159537.09
92753.70452,,183483.65
86994.95637,,189001.93
50102.7763,,175863.62
-1131.758229,,145675.68
-52871.30807,,101641.37
-99059.89159,,48200.09
-128527.0457,,-9406.08
-135250.361,,-65607.52
-134069.563,,-115004.16
-128376.082,,-152863.38
-119987.1147,,-175583.15
-103199.5241,,-181066.97
-60471.92937,,-168950.8
-6260.365994,,-140635.08
47570.59188,,-99108.07
82777.94215,,-48588.8
91209.37779,,5947.8
97323.11634,,59286.42
104281.1697,,106459.86
110900.2365,,143168.49
116428.2699,,166115.96
108081.6815,,173262.44
64932.44349,,163995.33
7030.920032,,139204.72
-52597.76742,,101238.88
-104620.9162,,53716.08
-124023.3033,,1188.72
-120611.5777,,-51312.4
-113876.5948,,-98794.4
-106329.9753,,-136803.74
-97744.1338,,-161843.83
-88952.79037,,-171665.66
-60222.97564,,-165421.41
-932.0230403,,-143696.09
60600.22838,,-108440.78
98703.38126,,-62822.32
112209.557,,-10989.62
121818.3484,,42251.06
129634.1276,,91851.89
134436.1316,,133006.36
133426.861,,161647.22
109677.2831,,174887.97
53223.52686,,171337.97
-11265.50272,,151244.13
-72273.69514,,116448.99
-103100.64,,70189.11
-102886.3761,,16777.68
-98709.55035,,-38784.13
-95917.0575,,-91235.5
-94435.09214,,-135506.67
-94473.31363,,-167178.28
-87755.67564,,-182924.75
-42839.35342,,-180897.69
20539.3309,,-160989.38
81016.62469,,-124917.64
122057.2438,,-76096.35
134187.7591,,-19295.25
137036.4889,,39864.6
135135.6518,,95504.23
128438.8457,,142086.06
118115.9607,,174950.96
88388.23001,,190750.62
32942.17979,,187756.55
-27782.19018,,166037.99
-76387.93604,,127499.17
-89999.9249,,75759.31
-93477.63282,,15858.97
-98636.50485,,-46208
-104542.2828,,-104106.29
-110138.9361,,-151847.73
-111821.5754,,-184462.23
-83216.57279,,-198552.58
-28252.06855,,-192654.69
28808.00114,,-167365.13
81951.50875,,-125240.47
118884.8607,,-70505.48
124668.7769,,-8620.75
119175.6122,,54243.12
111538.4682,,111787.02
103418.5712,,158187.4
94175.32017,,188683.48
75243.03499,,200092.54
30174.36328,,191185.9
-22875.0435,,162859.91
-71448.33463,,118058.98
-99606.43644,,61449.09
-110904.7068,,-1113.25
-119875.043,,-63235.22
-127159.0742,,-118669.72
-131547.7051,,-161940.47
-122350.1411,,-188852.17
-86332.31656,,-196857.32
-39794.06235,,-185270.67
10636.1223,,-155327.78
60294.00948,,-110080.47
95083.82917,,-54120.58
99710.64028,,6865.41
95163.80372,,66682.73
92369.61214,,119294.16
91311.9723,,159476.82
92043.36608,,183374.71
86435.44751,,188870.02
49812.91888,,175735.01
-1395.017075,,145570.31
-53056.96166,,101569.25
-99143.75533,,48161.49
-128109.0233,,-9417.63
-134685.7559,,-65600.84
-133613.6769,,-114986.52
-127960.2501,,-152838.42
-119592.6064,,-175551.3
-102848.9593,,-181028.05
-60170.62785,,-168907.29
-5983.740805,,-140594.3
47643.54797,,-99081.64
82410.61359,,-48588.99
90596.04592,,5913.56
96588.32509,,59220.41
103493.5389,,106375.56
110075.9488,,143087.35
115622.5789,,166060.19
107627.2258,,173246.72
64832.53119,,164021.19
7050.902492,,139260.44
-52506.21468,,101305.03
-104418.4541,,53774.18
-123655.5277,,1228.82
-120249.8371,,-51289.05
-113535.9989,,-98778.68
-105997.5154,,-136786.12
-97416.90426,,-161821.75
-88575.71644,,-171646.49
-60178.40626,,-165419.07
-1074.984798,,-143722.87
60278.58678,,-108498.44
97984.50446,,-62897.35
111346.0644,,-11055.64
120958.5662,,42224.38
128780.5145,,91887.03
133688.734,,133108.65
132873.1189,,161802.01
109619.3027,,175065.51
53377.93271,,171503.61
-11100.72566,,151369.57
-72074.00466,,116520.01
-102800.9478,,70207.32
-102558.6549,,16756.49
-98330.10713,,-38826.77
-95419.55238,,-91284.25
-93838.52408,,-135553
-93769.41249,,-167220.75
-87364.69893,,-182966
-42996.7097,,-180939.94
20369.18943,,-161030.5
80858.73197,,-124949.47
121477.2161,,-76105.86
133470.8939,,-19268.44
136434.4223,,39937.31
134686.4265,,95622.81
128123.4626,,142237.93
117910.28,,175111.92
88538.52314,,190890
33074.50212,,187845.53
-27716.20783,,166058.41
-76132.3662,,127449.49
-89465.53939,,75655.26
-92835.10957,,15728.26
-97890.35891,,-46335.04
-103758.0048,,-104206.38
-109308.4346,,-151910.58
-111166.9375,,-184490.7
-83155.2396,,-198557.17
-28214.42821,,-192645.74
28969.38073,,-167346.57
82163.5374,,-125208.31
118922.1435,,-70451.76
124488.309,,-8540.56
119057.5056,,54345.26
111404.3577,,111894.92
103142.2142,,158276.61
93857.47836,,188728.89
74995.28825,,200076.9
29994.65525,,191105.71
-23115.05653,,162726.31
-71514.76401,,117893.92
-99106.33851,,61278.68
-110209.8358,,-1265.23
-119079.6338,,-63351.58
-126328.8857,,-118741.16
-130821.8993,,-161964.64
-122062.5188,,-188832.02
-86200.39656,,-196799.81
-39454.44995,,-185186.27
11082.39723,,-155230.2
60668.13298,,-109985.82
95014.71758,,-54045.59
99380.95205,,6906.11
94733.89026,,66679.52
91785.11402,,119244.71
90608.29468,,159387.06
91258.86455,,183258.18
85819.56754,,188745.65
49429.05002,,175623.66
-1728.639213,,145490.58
-53337.02902,,101533.46
-99302.27391,,48172.76
-127690.7328,,-9366.02
-134035.5437,,-65523.29
-133066.9085,,-114900.53
-127477.8101,,-152759.04
-119132.7863,,-175486.67
-102581.5877,,-180977.95
-60120.87287,,-168865.42
-5935.818665,,-140553.16
47574.65989,,-99037.78
81897.05991,,-48545.84
89784.76701,,5946.84
95553.70755,,59233.7
102352.1247,,106363.9
108903.8681,,143055.32
114572.0469,,166022.19
107157.0792,,173222.73
64820.05892,,164029.72
7140.890615,,139311.63
-52334.41917,,101396.86
-104056.3558,,53892.99
-123072.9071,,1353.67
-119679.0182,,-51180.27
-113014.8456,,-98703.69
-105499.6527,,-136754.88
-96909.92199,,-161835.48
-88022.24255,,-171698.6
-60037.67968,,-165497.15
-1217.320707,,-143811.15
59882.02213,,-108580.68
97026.86632,,-62960.07
110252.8853,,-11091.07
119981.0797,,42216.68
127854.5711,,91900.92
132889.1227,,133134.71
132265.0173,,161832.27
109671.2035,,175097.3
53670.15942,,171540.28
-10892.18389,,151417.24
-71850.66603,,116581.6
-102405.903,,70277.04
-102135.4916,,16818.35
-97862.95567,,-38794.68
-94845.42547,,-91300.82
-93177.31478,,-135624.46
-92972.97513,,-167335.09
-86894.59704,,-183094.94
-43174.8084,,-181048.16
20242.45503,,-161088.48
80708.48354,,-124944.13
120898.7976,,-76044.21
132834.0033,,-19172.82
135902.7637,,40039.86
134256.9154,,95711.6
127676.5618,,142304.75
117502.4053,,175159.74
88506.11311,,190925.75
33220.81664,,187871.5
-27515.62327,,166067.42
-75848.0073,,127426.76
-88946.30837,,75586.12
-92209.43954,,15607.5
-97107.01968,,-46497.03
-102877.5248,,-104384.24
-108399.7915,,-152071.29
-110499.6932,,-184604.23
-83180.22885,,-198605.81
-28307.09854,,-192628.09
28979.2155,,-167275.27
82250.35158,,-125103.27
118833.6752,,-70332.45
124116.6889,,-8420.79
118672.9215,,54458.38
111042.9747,,111998.61
102847.0818,,158368.65
93595.73944,,188804.64
74813.34505,,200128.64
29896.35228,,191124.27
-23271.92107,,162704.19
-71557.50055,,117828.62
-98434.17685,,61175.42
-109381.2566,,-1392.33
-118334.4714,,-63480.2
-125640.4967,,-118843.98
-130258.9035,,-162015
-121690.5858,,-188810.97
-85867.31087,,-196702.67
-39141.30201,,-185025.83
11274.1752,,-155034.37
60860.93913,,-109789.63
95037.29284,,-53879.82
99282.60437,,7025.04
94602.23849,,66753.78
91528.42659,,119290.95
90252.00787,,159425.38
90771.46241,,183299.32
85424.03107,,188782.91
49233.11463,,175634.19
-1904.726256,,145446.37
-53473.41937,,101417.2
-99326.72671,,47990.82
-127472.1774,,-9580.44
-133833.5733,,-65719.51
-133021.9815,,-115028.75
-127613.1275,,-152789.83
-119336.6789,,-175422.64
-102518.6899,,-180852.38
-59849.47799,,-168728.37
-5721.286621,,-140451.55
47632.59561,,-98998.44
81785.65881,,-48568.61
89565.04936,,5883.84
95304.66441,,59160.29
102120.1583,,106303.01
108630.2827,,143014.02
114237.9331,,165992.04
106886.5784,,173187.92
64691.80461,,163977.75
7171.378395,,139240.75
-52231.91407,,101316.8
-104018.2238,,53819.52
-123354.3156,,1300.55
-120058.5955,,-51207.46
-113352.4464,,-98709.05
-105731.0826,,-136748.98
-97112.02647,,-161829.96
-88115.27051,,-171701.73
-60162.89415,,-165512.24
-1407.981087,,-143837.73
59753.09727,,-108616.78
96874.20391,,-63003.5
110034.2405,,-11139.08
119714.1105,,42168.73
127602.0411,,91860.14
132756.3533,,133109.21
132269.3982,,161827.93
109743.8913,,175114.22
53817.54682,,171571.24
-10749.22213,,151449.29
-71771.94318,,116600.48
-102594.0153,,70272.32
-102402.1926,,16786.85
-98083.12036,,-38848.67
-94942.02971,,-91368.32
-93175.75016,,-135695.61
-92863.98803,,-167401.94
-86846.6302,,-183151.89
-43350.3143,,-181090.47
20076.06865,,-161110.61
80575.31185,,-124939.57
120718.2402,,-76007.55
132755.6828,,-19102.9
135954.3962,,40137.5
134454.773,,95824.87
127956.9868,,142418.02
117787.3454,,175258.24
88710.18454,,190999.29
33304.23335,,187915.51
-27479.90519,,166081.37
-75874.65058,,127411.34
-89021.45493,,75541.48
-92179.4882,,15534.03
-96938.93456,,-46595.85
-102638.7188,,-104498.84
-108114.8068,,-152185.34
-110297.4993,,-184697.57
-83205.84395,,-198660.13
-28227.0793,,-192632.76
29200.81069,,-167230.44
82522.46172,,-125018.8
119142.3975,,-70223.57
124407.4851,,-8303.15
118994.5631,,54571.58
111381.9166,,112096.22
103149.5903,,158439.35
93875.49387,,188835.71
74902.43911,,200108.02
29827.77713,,191045.93
-23420.33665,,162574.03
-71681.37392,,117666.77
-98403.15263,,61012.03
-109285.3229,,-1527.15
-118201.702,,-63568.04
-125496.8644,,-118885.28
-130213.6189,,-162027.05
-121695.9055,,-188817.17
-85789.21387,,-196717.97
-38931.1062,,-185046.5
11512.5342,,-155038.44
61112.66447,,-109749.03
95346.68569,,-53778.66
99652.57044,,7175.65
94919.85678,,66913.3
91715.95773,,119402.42
90336.9445,,159438.97
90733.82208,,183195.6
85262.69618,,188584.27
48996.9461,,175398.2
-2097.934735,,145243.38
-53594.61052,,101302.44
-99410.59046,,47983.84
-127519.5631,,-9499.7
-133947.7907,,-65597.07
-133248.5388,,-114912.82
-127900.3475,,-152709.09
-119623.72,,-175376.96
-102639.8811,,-180819.24
-59833.0271,,-168680.47
-5678.684196,,-140375.27
47664.24568,,-98903.13
81867.4662,,-48482.42
89603.67317,,5928.81
95205.825,,59145.07
101957.2588,,106231.81
108428.8041,,142912.4
114060.7731,,165894.66
106769.947,,173122.82
64654.92423,,163955.25
7216.439511,,139252.16
-52073.3955,,101342.43
-103903.7381,,53840.84
-123546.2276,,1309.53
-120328.8728,,-51206.22
-113654.1949,,-98703.71
-106033.8594,,-136729.27
-97406.93538,,-161794.05
-88293.45862,,-171657.32
-60201.33915,,-165471.75
-1504.495919,,-143810.94
59512.36898,,-108605.21
96624.3114,,-62999.77
109773.038,,-11131.14
119509.6367,,42191.05
127419.025,,91900.11
132685.1407,,133162.06
132330.1503,,161883.56
109904.0192,,175161.9
54100.87754,,171603.29
-10458.73886,,151462.33
-71595.81144,,116594.35
-102815.9681,,70248.3
-102713.463,,16746.89
-98348.56967,,-38901.17
-95101.84468,,-91427.12
-93254.07067,,-135751.49
-92844.31849,,-167444.65
-86857.71666,,-183173.81
-43483.93303,,-181090.06
19958.31966,,-161093.12
80478.21587,,-124914.18
120612.6506,,-75981.9
132759.9296,,-19078.05
136085.1092,,40168.62
134721.2505,,95873.84
128360.9722,,142493.44
118196.9635,,175358.06
88927.13057,,191107.05
33357.34109,,188003.33
-27456.74878,,166118.95
-75971.79126,,127377.53
-89196.64791,,75433.33
-92281.36745,,15369.22
-96936.65468,,-46784.22
-102592.9871,,-104672.89
-108026.9644,,-152313.98
-110216.9884,,-184764.42
-83280.45407,,-198665.21
-28297.04026,,-192588.35
29265.94368,,-167153.73
82693.36315,,-124925.11
119466.9002,,-70122.69
124821.037,,-8199.65
119434.1325,,54675.26
111808.9243,,112196.07
103521.8362,,158527.45
94222.70587,,188900.44
74976.46808,,200136.49
29679.45095,,191027.78
-23662.09312,,162505.15
-71916.78249,,117551.95
-98303.91089,,60865.62
-109089.3428,,-1682.82
-118059.0979,,-63706.6
-125385.6868,,-118981.74
-130165.1156,,-162063.78
-121595.9038,,-188788.49
-85521.70819,,-196631.82
-38637.6278,,-184922.26
11724.07111,,-154901.34
61317.40645,,-109623.01
95615.57718,,-53680.33
99991.82522,,7239.82
95227.95322,,66945.61
91910.82024,,119409.47
90454.96171,,159426.69
90702.30612,,183166.16
85076.81907,,188536.55
48768.19834,,175331.21
-2286.449347,,145160.48
-53733.45956,,101213.7
-99550.15475,,47904.83
-127608.8807,,-9552.58
-134092.2277,,-65612.44
-133515.2845,,-114888.66
-128225.4312,,-152653.25
-119951.7095,,-175303.5
-102683.1988,,-180742.52
-59589.39309,,-168609.73
-5429.328135,,-140312.4
47803.05002,,-98844.57
82018.11695,,-48423.82
89719.3658,,5987.59
95175.91836,,59197.6
101855.9607,,106266.6
108289.1951,,142917.84
113941.5489,,165865
106615.5412,,173062.27
64509.05675,,163878.3
7202.983761,,139179.46
-51982.15568,,101294.01
-103861.1357,,53829.17
-123886.6,,1335.21
-120772.5997,,-51154.64
-114108.8294,,-98645.65
-106452.1946,,-136685.36
-97808.05979,,-161779.03
-88582.95841,,-171675.2
-60345.10557,,-165514.82
-1643.881398,,-143862.93
59364.0428,,-108647.56
96550.86357,,-63018.63
109687.0285,,-11122.58
119437.4853,,42219.9
127368.4653,,91934.36
132721.0823,,133185.82
132486.7466,,161887.25
110109.4318,,175146.83
54330.65347,,171581.15
-10258.95897,,151449.39
-71498.26843,,116602.59
-103150.842,,70277.52
-103159.3803,,16781.82
-98753.89621,,-38886.82
-95397.20063,,-91460.59
-93460.7349,,-135848.93
-92914.05593,,-167602.38
-86939.21112,,-183367.01
-43760.78174,,-181279.89
19680.21925,,-161239.76
80308.61083,,-124990.4
120519.6226,,-75981.66
132808.2094,,-19016.86
136254.9378,,40261.25
135031.4033,,95966.2
128767.5951,,142562.48
118599.3396,,175394.93
89187.88602,,191115.91
33523.77218,,187994.96
-27335.46821,,166102.92
-76083.99702,,127356.88
-89401.21107,,75403.8
-92399.20585,,15323.01
-96954.8937,,-46852.54
-102555.5703,,-104761.29
-107946.4534,,-152410.99
-110158.6056,,-184851.14
-83344.15654,,-198720.42
-28270.26287,,-192594.8
29427.99383,,-167103.64
82932.92915,,-124822.99
119824.4387,,-69984.75
125309.5121,,-8049.82
119969.3674,,54811.63
112328.9153,,112299.05
103957.0247,,158587.66
94610.68745,,188920.37
75025.99955,,200127.48
29450.61379,,191003.53
-23945.06621,,162474.7
-72153.62157,,117515.52
-98314.2821,,60815.92
-109026.4003,,-1753.98
-117964.4159,,-63799.42
-125275.0457,,-119082.21
-130111.9185,,-162144.44
-121487.2296,,-188817.25
-85262.51736,,-196585.86
-38226.13218,,-184800.34
12165.60747,,-154728.01
61779.14879,,-109441.35
96073.60912,,-53535.52
100390.938,,7318.76
95555.00395,,66957.05
92087.1755,,119377.46
90513.7915,,159386.66
90667.16917,,183145.23
84957.10313,,188538.52
48476.95511,,175334.49
-2634.153084,,145130.57
-54060.6891,,101124
-99792.80529,,47754.78
-127637.178,,-9732.03
-134113.5513,,-65769.9
-133658.2462,,-114974.79
-128551.5432,,-152643.7
-120341.971,,-175210.47
-102672.2017,,-180608.9
-59350.31883,,-168488.79
-5277.872715,,-140243.31
47858.75056,,-98836.23
82044.62612,,-48454.84
89693.25896,,5953.62
95046.59117,,59190.17
101682.2877,,106291.99
108067.9128,,142956.68
113660.811,,165884.77
106308.1153,,173036.96
64236.94661,,163804.16
7036.060934,,139078.16
-52049.1215,,101201.55
-103850.988,,53777.1
-123933.2257,,1334.49
-120857.134,,-51118.33
-114214.5084,,-98603.1
-106563.5957,,-136666.96
-97940.69504,,-161799.45
-88626.27609,,-171727.8
-60346.35727,,-165578.11
-1735.031812,,-143914.46
59130.91411,,-108676.59
96211.83231,,-63030.17
109303.2937,,-11131.01
119061.0819,,42203.09
126969.7996,,91910.52
132383.3474,,133170.26
132267.3419,,161900.32
110126.5979,,175200.21
54463.73575,,171667.79
-10131.01758,,151543.56
-71396.79151,,116670.92
-103150.2608,,70295.33
-103227.1061,,16745.62
-98816.07876,,-38957.65
-95349.90434,,-91534.12
-93332.79351,,-135897.29
-92684.86115,,-167615.41
-86788.87329,,-183355.22
-43863.82328,,-181265.24
19605.43032,,-161239.63
80264.04146,,-125004.14
120251.8934,,-75987.95
132533.0147,,-18983.96
136084.9304,,40357.52
134987.728,,96126.4
128852.3977,,142758.48
118722.7659,,175579.09
89315.29097,,191240.49
33548.13558,,188032.11
-27332.16015,,166055.62
-76098.03392,,127255.51
-89365.09065,,75290.73
-92281.63568,,15233.15
-96754.21974,,-46905.55
-102323.3804,,-104787.05
-107677.249,,-152432.5
-109923.7782,,-184888.95
-83359.71336,,-198779.36
-28300.97417,,-192659.8
29499.96644,,-167146.14
83101.19308,,-124814.51
119994.1331,,-69910.69
125420.0191,,-7917.37
120101.2427,,54974.62
112474.2016,,112453.05
104089.6152,,158694.05
94750.07293,,188952.72
75022.91501,,200077.83
29328.08153,,190882.53
-24196.47863,,162306.71
-72393.18757,,117330.92
-98037.43339,,60643.27
-108617.1399,,-1894.01
-117583.274,,-63897.04
-124916.6578,,-119137.92
-129842.7588,,-162165.36
-121400.9072,,-188811.81
-85159.2076,,-196558.9
-38046.11123,,-184751.16
12311.29614,,-154652.42
61857.91634,,-109337.22
96117.46325,,-53409.13
100488.8386,,7449.19
95620.80748,,67063.61
92015.15818,,119430.7
90337.52565,,159366.9
90368.68398,,183051.82
84590.35571,,188392.34
48200.19581,,175171.66
-2834.603528,,144989.62
-54189.47985,,101031.99
-99862.0957,,47718.75
-127503.9169,,-9724.39
-133975.0599,,-65741
-133622.1258,,-114944.38
-128564.7754,,-152619.15
-120354.0409,,-175185.22
-102574.9269,,-180569.69
-59152.64,,-168427.36
-5076.930532,,-140165.89
47946.05648,,-98765.06
81936.93542,,-48420.09
89447.21096,,5927.93
94654.22865,,59099.31
101221.7523,,106155.87
107572.1958,,142814.4
113199.7839,,165780.2
106081.2898,,173002.11
64242.44514,,163847.5
7188.008092,,139182.99
-51789.61775,,101334.57
-103599.1286,,53902.75
-124102.8308,,1428.32
-121173.0088,,-51062.78
-114522.6049,,-98576.11
-106756.8042,,-136651.12
-98068.3235,,-161779.97
-88635.08268,,-171699.81
-60462.45223,,-165548.05
-1953.408355,,-143895.58
58909.1848,,-108681.42
95952.55207,,-63063.46
108979.0146,,-11186.06
118702.694,,42143.44
126642.436,,91869.04
132172.7493,,133168.14
132204.757,,161950.11
110239.8318,,175300.76
54735.22004,,171802.81
-9812.013484,,151684.64
-71184.62875,,116784.71
-103304.2196,,70353.33
-103376.1923,,16733.7
-98869.1418,,-39033.54
-95242.57126,,-91648.82
-93104.44809,,-136014.47
-92354.05533,,-167700.32
-86605.14195,,-183387.41
-43987.65194,,-181245.71
19434.39477,,-161188.98
80073.15756,,-124952.18
119942.1877,,-75959.25
132255.9872,,-18986.03
135913.5373,,40337.47
134933.458,,96114.3
128913.3732,,142779.01
118829.9202,,175641.02
89448.68618,,191329.14
33561.90426,,188113.13
-27398.72365,,166088.64
-76048.99419,,127211.52
-89071.52284,,75164.99
-91859.59004,,15047.55
-96205.93145,,-47111.51
-101726.857,,-104972.06
-107042.8171,,-152568.35
-109430.9222,,-184967.88
-83418.23023,,-198811.08
-28357.30056,,-192661.07
29629.74067,,-167129.31
83279.5153,,-124781.29
120032.6228,,-69854.27
125286.4004,,-7831.04
119967.8922,,55087.84
112337.5878,,112575.6
103880.4029,,158797.09
94498.79462,,189006.18
74782.99138,,200062.21
29136.30356,,190796.67
-24432.82597,,162167.89
-72409.10201,,117167.84
-97377.02875,,60485.58
-107816.411,,-2024.4
-116806.0144,,-63989.27
-124172.2553,,-119190.11
-129191.1607,,-162179.62
-120973.676,,-188790.12
-84820.71278,,-196502.41
-37685.667,,-184662.46
12644.11362,,-154538.72
62165.20812,,-109211.4
96081.11931,,-53287.55
100148.0639,,7551.26
95211.59175,,67136.08
91451.26837,,119469.94
89657.45147,,159373.69
89541.58003,,183027.74
83864.95219,,188337.74
47750.03168,,175087.2
-3205.68719,,144880.93
-54417.64646,,100914.24
-99921.46193,,47617.12
-127006.7694,,-9780.7
-133337.8563,,-65729.81
-133086.9804,,-114861.76
-128117.9193,,-152484.59
-119929.4472,,-175036.86
-102256.0569,,-180450.38
-58996.62483,,-168367.3
-5006.924868,,-140170.08
47878.68832,,-98811.88
81386.9931,,-48472.33
88625.24791,,5904.66
93709.55452,,59119.75
100221.1094,,106208.1
106542.451,,142866.36
112194.8942,,165796.56
105542.3445,,172963.03
64130.99934,,163759.85
7194.311284,,139078.46
-51747.68588,,101255.4
-103427.8248,,53882.06
-123527.7651,,1474.75
-120521.6343,,-50969.09
-113882.0933,,-98474.33
-106119.2877,,-136582.05
-97427.05195,,-161768.36
-87979.86364,,-171744.65
-60343.63035,,-165624.71
-2133.295194,,-143968.15
58446.95073,,-108718.83
94852.44392,,-63052.13
107705.2781,,-11133.86
117512.6424,,42212.81
125507.3697,,91927.76
131128.6546,,133196.52
131365.9407,,161943.99
110017.1638,,175271.45
54788.32779,,171770.15
-9815.41095,,151666.57
-71082.39187,,116787.83
-102705.8634,,70368.26
-102657.5837,,16737.27
-98143.24655,,-39070.04
-94411.17578,,-91748.07
-92186.28313,,-136182.52
-91320.77888,,-167921.16
-85924.26311,,-183625.23
-44137.31922,,-181454.78
19294.38344,,-161327.93
79983.48236,,-124997.52
119163.7658,,-75912.65
131272.1975,,-18872.42
135058.896,,40480.54
134197.8621,,96251.35
128245.9501,,142888.84
118253.0216,,175721.06
89456.15166,,191390.06
33693.46663,,188166.94
-27286.83082,,166136.84
-75683.31965,,127240.11
-88296.36434,,75149.68
-90993.90697,,14967.22
-95223.43817,,-47259.83
-100660.947,,-105164.76
-105954.0189,,-152758.77
-108555.8961,,-185101.31
-83318.94378,,-198845.08
-28356.5406,,-192581.95
29697.01942,,-166957.08
83388.86003,,-124560.91
119783.0879,,-69637.37
124754.1606,,-7656.58
119452.1927,,55205.26
111852.8678,,112645.35
103377.2651,,158841.52
94013.49354,,189045.48
74528.2709,,200102.99
29017.79461,,190829.53
-24659.42796,,162174.26
-72415.44991,,117131.77
-96650.55235,,60404.04
-106955.5559,,-2137.6
-115925.0427,,-64107.47
-123275.5927,,-119282.95
-128370.5388,,-162222.96
-120618.1491,,-188772.66
-84705.37778,,-196427.1
-37423.65985,,-184543.75
12957.70859,,-154397.81
62430.56803,,-109071.65
95990.37123,,-53170.71
99779.75187,,7628.09
94826.47119,,67163.42
90955.99842,,119448.35
89086.49851,,159314.39
88890.74193,,182950.06
83473.08141,,188263.19
47692.94532,,175032.05
-3260.091336,,144850.45
-54540.26813,,100901.69
-99980.73876,,47608.57
-126535.8182,,-9797.87
-132729.1289,,-65758.9
-132563.0108,,-114893.6
-127725.378,,-152501.4
-119614.5111,,-175021.47
-102016.3568,,-180396.11
-58830.9537,,-168283.34
-4824.311116,,-140079.14
47925.58228,,-98741.1
81030.70629,,-48441.79
88088.76134,,5890.09
93078.83299,,59071.15
99570.0478,,106146
105871.5857,,142810.56
111498.2798,,165757.86
105019.9842,,172940.95
63871.54029,,163747.07
7074.684748,,139068.58
-51739.23692,,101249.24
-103264.0312,,53888.34
-123246.7143,,1504.49
-120265.0363,,-50911.22
-113644.4943,,-98396.78
-105840.6062,,-136506.82
-97151.81257,,-161724.15
-87647.76142,,-171755.4
-60267.05328,,-165698.91
-2233.252196,,-144093.94
58277.79273,,-108867.25
94342.37711,,-63187.17
107063.6937,,-11224.83
116821.2136,,42181.52
124764.2636,,91953.22
130433.2471,,133260.53
130815.8196,,162021.12
109957.4399,,175338.02
55013.85689,,171811.05
-9603.605819,,151677.98
-70887.03762,,116775.96
-102432.6357,,70345.27
-102341.3065,,16716.11
-97808.59623,,-39080.19
-93977.64134,,-91744.71
-91672.1036,,-136170.11
-90706.91058,,-167908.79
-85511.15817,,-183621.96
-44255.60466,,-181464.32
19111.9038,,-161344.78
79716.02138,,-125006.75
118503.1824,,-75894.39
130542.1448,,-18809.89
134429.7838,,40592.28
133661.0179,,96400.21
127769.9921,,143046.92
117825.1645,,175852.87
89388.7388,,191464.83
33789.80265,,188170.05
-27133.49785,,166075.2
-75348.66933,,127139
-87756.70382,,75042.22
-90361.44201,,14881.26
-94466.38459,,-47311.57
-99826.1988,,-105186.94
-105070.0522,,-152767.42
-107818.3332,,-185112.87
-83266.14896,,-198866.11
-28405.71444,,-192604.54
29786.56051,,-166962.17
83526.59148,,-124527.7
119618.7579,,-69554.31
124297.6933,,-7528.61
119011.3269,,55356.32
111439.2711,,112787.36
102922.1389,,158942.47
93582.68602,,189083.37
74225.36006,,200071.49
28872.15064,,190737.92
-24822.55099,,162042.59
-72289.52018,,116983.87
-95908.0721,,60261.31
-106092.0186,,-2259.91
-115018.1878,,-64200.87
-122337.3112,,-119344.28
-127489.9694,,-162252.07
-120234.4591,,-188770.55
-84636.22148,,-196395.25
-37299.07123,,-184484.63
13079.97263,,-154316.28
62509.38028,,-108976.32
95760.81881,,-53074.55
99260.20792,,7708.81
94267.09643,,67212.12
90266.84943,,119452.53
88295.38087,,159269.93
87985.22806,,182863.7
82750.13658,,188151.51
47343.49815,,174916.78
-3557.771868,,144751.53
-54756.36479,,100830.97
-100080.5169,,47566.91
-125917.7477,,-9818.45
-131938.7265,,-65768.98
-131876.5887,,-114899.21
-127079.4573,,-152499.88
-118953.6147,,-175003.02
-101611.522,,-180350.84
-58651.6033,,-168210.35
-4659.310539,,-139992.68
47960.89804,,-98669.5
80523.36639,,-48418.36
87298.89539,,5841
92131.07432,,58946.79
98483.3954,,105970.14
104732.1832,,142627.52
110434.8285,,165617.2
104519.3052,,172878.89
63899.03294,,163772.48
7210.493947,,139159.81
-51586.75332,,101363.16
-102985.3944,,53977.83
-122691.631,,1537
-119677.543,,-50941.96
-113103.1797,,-98470.36
-105332.4169,,-136586.76
-96670.17718,,-161774.4
-87145.2495,,-171755.49
-60098.43172,,-165651.47
-2259.269626,,-144021.77
58002.68745,,-108801.93
93505.12546,,-63154.35
106071.8126,,-11232.57
115899.0253,,42146.72
123918.116,,91921.11
129690.0069,,133265.13
130272.6275,,162086.64
109953.953,,175468.41
55281.18375,,171987.14
-9324.745455,,151863.2
-70604.51157,,116928.53
-102182.4303,,70432.31
-102066.3353,,16724.39
-97510.37926,,-39140.76
-93578.79681,,-91845.91
-91196.45848,,-136276.56
-90146.59705,,-167990.63
-85160.72752,,-183664.16
-44408.6247,,-181468.93
18960.7613,,-161325.8
79561.79435,,-124980.42
118028.2972,,-75869.82
130054.7874,,-18784.61
134066.2103,,40629.81
133443.9377,,96462.47
127701.3275,,143137.91
117824.0022,,175962.3
89519.22828,,191569.29
33913.27368,,188240.88
-27057.77014,,166089.54
-75200.07493,,127088.8
-87495.72486,,74937.09
-90024.42241,,14743.89
-94057.30296,,-47454.84
-99378.58276,,-105315.63
-104583.3206,,-152872.06
-107406.3012,,-185193.62
-83274.73203,,-198926.44
-28493.5568,,-192644.06
29774.04353,,-166973.06
83595.21134,,-124497.21
119662.5673,,-69472.35
124334.0819,,-7396.68
119076.3705,,55519.83
111503.5995,,112948.74
102925.9387,,159061.28
93570.61607,,189125
74147.79951,,200018.7
28730.44058,,190596.72
-25015.31244,,161840.45
-72355.72605,,116760.95
-95486.02646,,60058.39
-105574.6204,,-2412.49
-114532.3949,,-64289.67
-121907.2636,,-119373.05
-127148.3901,,-162236.65
-119976.7435,,-188730.77
-84329.51085,,-196347.05
-36867.36964,,-184435.08
13524.23591,,-154262.93
62921.09941,,-108911.05
95996.4062,,-52990.18
99357.48271,,7811.73
94332.76586,,67321.21
90205.69506,,119544.48
88139.00806,,159316.79
87739.04595,,182842.92
82521.47824,,188056.1
47171.56853,,174761.32
-3723.755923,,144570.94
-54887.34602,,100671.34
-100169.0299,,47471.3
-125794.0979,,-9824.27
-131810.964,,-65685.17
-131872.4313,,-114751.29
-127242.7144,,-152328.93
-119191.8843,,-174850.51
-101622.0274,,-180244.08
-58506.67459,,-168154.36
-4577.234933,,-139971.48
48022.90178,,-98655.69
80477.45591,,-48386.65
87157.58767,,5902.29
91919.00097,,59030.97
98295.55134,,106055.74
104518.1429,,142688.19
110158.3821,,165633.52
104278.5322,,172846.89
63727.95269,,163705.74
7167.08686,,139084.35
-51531.23159,,101307.55
-102922.4071,,53962.56
-122909.65,,1567.14
-120001.5092,,-50878.13
-113420.6639,,-98396.55
-105528.4864,,-136529.59
-96826.59469,,-161753.54
-87224.6429,,-171776.7
-60197.62876,,-165704.96
-2446.309024,,-144086.54
57805.9921,,-108854.2
93292.78389,,-63176.85
105809.269,,-11220.9
115590.7948,,42183.19
123598.8436,,91964.2
129416.064,,133296.32
130116.5676,,162095.27
109974.3825,,175455.77
55413.86371,,171964.35
-9243.429809,,151843.9
-70565.53013,,116919.93
-102223.3787,,70429.14
-102135.7598,,16709.28
-97568.5832,,-39190.08
-93535.74735,,-91945.62
-91073.92622,,-136427.01
-89929.96394,,-168172.88
-85000.95725,,-183844.79
-44576.30748,,-181611.53
18775.77827,,-161404.1
79389.28358,,-124987.32
117723.1959,,-75818.26
129777.7599,,-18700.23
133908.5858,,40720.53
133397.9825,,96542.73
127768.0251,,143204.88
117912.694,,176023.43
89624.28148,,191632.93
34008.84974,,188306.48
-26943.10569,,166142.9
-75145.89431,,127105.36
-87433.94463,,74892.23
-89878.42082,,14625.78
-93791.13839,,-47636.01
-99029.85084,,-105526.72
-104193.0591,,-153065.44
-107074.9589,,-185322.16
-83276.87779,,-198959.24
-28534.32638,,-192576.69
29852.45345,,-166828.39
83754.04283,,-124316.61
119763.0608,,-69300.81
124321.5202,,-7267.67
119060.0984,,55594.12
111526.8006,,112978.29
102974.9784,,159070.56
93648.93659,,189140.11
74196.43691,,200054.77
28729.72533,,190650.83
-25068.6884,,161892.8
-72330.64739,,116783.98
-95197.28663,,60030.02
-105223.8769,,-2496.92
-114180.4891,,-64412.03
-121544.6736,,-119496.07
-126830.8165,,-162315.9
-119850.9925,,-188730.43
-84269.74228,,-196253.43
-36788.46798,,-184262.49
13578.95298,,-154049.45
63007.46656,,-108705.61
96069.94344,,-52836.06
99412.3339,,7890.68
94395.30604,,67326.32
90171.98863,,119498.12
88019.47093,,159250.68
87496.2613,,182783.96
82197.46735,,188015.98
46911.88597,,174733.96
-3986.031292,,144538.34
-55064.28242,,100614.91
-100228.262,,47383.07
-125602.007,,-9935.58
-131617.1743,,-65796.06
-131774.6647,,-114832.53
-127175.838,,-152357.85
-119092.2849,,-174821.15
-101494.98,,-180170.98
-58323.43499,,-168068.18
-4380.673692,,-139908.31
48108.82188,,-98644.27
80407.98669,,-48438.46
87003.67355,,5796.29
91623.73443,,58896.02
97863.89445,,105923.46
104049.8738,,142585.24
109719.7067,,165573.27
104021.3083,,172827
63652.18027,,163712
7211.745645,,139098.58
-51422.5127,,101315.85
-102818.7845,,53960.3
-122821.5841,,1558.64
-119913.9798,,-50884.48
-113374.2617,,-98395.13
-105540.3329,,-136522.74
-96879.56832,,-161752.3
-87222.58654,,-171796.47
-60233.07863,,-165757.9
-2535.671298,,-144174.19
57581.26766,,-108964.05
92914.19004,,-63284.68
105374.0806,,-11298.46
115186.9881,,42158.2
123222.2615,,92000
129112.6614,,133384.09
129963.1453,,162212.66
110023.6905,,175575.33
55624.01481,,172063.22
-9014.235021,,151910.89
-70382.42464,,116957.19
-102302.9956,,70448.29
-102268.0822,,16724.06
-97694.42352,,-39171.01
-93559.79783,,-91922.47
-91007.63095,,-136407.79
-89776.9886,,-168168.03
-84878.91673,,-183860.31
-44615.73596,,-181643.71
18733.9358,,-161438.45
79346.41294,,-125002.34
117522.2537,,-75792.75
129583.4785,,-18621.35
133820.7434,,40851.45
133405.8503,,96708.87
127946.705,,143377.73
118171.0354,,176170.38
89905.91346,,191726.36
34145.28479,,188331.28
-26919.50225,,166100.11
-75158.50069,,127010.82
-87428.71433,,74770.85
-89787.44922,,14503.4
-93638.07364,,-47740.26
-98906.06688,,-105604.94
-104064.3578,,-153120.78
-106939.3285,,-185364.25
-83310.40541,,-198997.09
-28559.94148,,-192612.31
29945.03438,,-166853.99
83897.63044,,-124317.06
119944.2887,,-69260.73
124602.3476,,-7180.41
119387.2833,,55719.53
111836.5511,,113115.78
103176.9041,,159182.58
93811.29966,,189188.87
74153.16393,,200015.17
28529.31959,,190520
-25364.31257,,161692.43
-72556.93645,,116554.05
-94980.56412,,59816.12
-104916.451,,-2657.91
-113880.2157,,-64502.39
-121270.0601,,-119520.05
-126612.7082,,-162294.19
-119730.606,,-188689.17
-84099.5114,,-196212.71
-36502.36565,,-184229.44
13891.8774,,-154018.45
63282.08009,,-108665.08
96294.48906,,-52778.05
99582.07304,,7962.86
94528.79066,,67396.35
90179.2753,,119541.8
87923.22432,,159245.7
87287.31719,,182720.01
81920.97627,,187900.64
46644.42499,,174591.86
-4213.348533,,144403.82
-55220.43171,,100521.16
-100308.5494,,47352.11
-125486.9402,,-9898.58
-131518.9161,,-65702.6
-131773.413,,-114705.39
-127307.3557,,-152223.28
-119271.7694,,-174701.58
-101456.6244,,-180080.39
-58173.723,,-168011.04
-4287.869249,,-139881.32
48149.18913,,-98639.64
80345.71473,,-48447.46
86841.5787,,5780.66
91342.10245,,58877.46
97506.40065,,105902.18
103641.5075,,142559.19
109303.7408,,165540.34
103713.033,,172787.77
63446.00778,,163671.82
7125.691429,,139067.82
-51370.07551,,101307.52
-102711.7196,,53985.24
-122836.8727,,1619.99
-119969.278,,-50795.29
-113444.4461,,-98298.5
-105583.427,,-136446.23
-96904.78109,,-161722.32
-87160.76161,,-171829.14
-60163.02826,,-165852.83
-2602.011276,,-144313.88
57382.91828,,-109119.17
92536.13264,,-63423.56
104919.7143,,-11396.7
114730.2079,,42111.33
122784.1673,,92000.71
128729.1948,,133418.28
129712.761,,162262.74
110031.7371,,175626.38
55807.56734,,172106.1
-8788.750623,,151941.66
-70236.87008,,116974.14
-102293.1608,,70448.82
-102234.0628,,16703.48
-97629.69287,,-39218.16
-93386.97414,,-91999.32
-90742.22633,,-136512.08
-89403.22273,,-168290.68
-84629.29244,,-183986.51
-44729.50634,,-181756.1
18598.79715,,-161521.14
79171.75641,,-125044.36
117073.2519,,-75789.98
129123.3008,,-18576.79
133463.5625,,40928.92
133152.6051,,96806.45
127783.0455,,143480.94
118043.2729,,176265.26
89944.8949,,191801.16
34159.94753,,188377.65
-26919.05521,,166113.43
-75027.02773,,126989.86
-87110.24667,,74717.13
-89388.51528,,14420.78
-93135.20409,,-47845.21
-98321.70288,,-105721.96
-103427.4225,,-153235.06
-106397.2987,,-185456.91
-83284.16446,,-199047.93
-28616.5808,,-192604.69
30022.2373,,-166780.56
84090.16837,,-124183.88
119907.5425,,-69087.62
124340.4298,,-6996.55
119127.3325,,55883.64
111603.0647,,113237.12
102924.5082,,159251.63
93570.83959,,189210.31
73937.46959,,200003.06
28266.64189,,190489.9
-25692.83851,,161654.06
-72610.62534,,116508.11
-94361.42079,,59756.76
-104188.7676,,-2736.38
-113169.3409,,-64598.09
-120577.4242,,-119619.41
-125976.0858,,-162373.62
-119362.8304,,-188722.49
-83822.43917,,-196181.31
-36146.88351,,-184130.83
14218.70461,,-153869.41
63544.80249,,-108497.73
96253.31715,,-52630.19
99316.80254,,8059.58
94228.2044,,67426.02
89751.4182,,119508.1
87404.0827,,159168.7
86681.54021,,182627.46
81334.28768,,187817.13
46192.83035,,174529.89
-4630.834416,,144360.25
-55538.31822,,100480.24
-100429.5171,,47293.88
-125057.8314,,-9987.67
-131001.3391,,-65821.21
-131339.4763,,-114834.75
-126950.6218,,-152332.08
-118933.2746,,-174757.16
-101125.7292,,-180062.19
-57847.61105,,-167920.96
-3992.781519,,-139746.22
48309.89817,,-98504.27
80063.99334,,-48359.49
86350.06384,,5787.91
90727.7424,,58797.86
96811.17199,,105759.75
102919.4567,,142399.41
108578.2926,,165413.12
103292.4626,,172728.6
63332.28211,,163688.83
7152.73704,,139140.09
-51259.07675,,101394.96
-102542.0252,,54045.98
-122573.9715,,1627.63
-119693.6363,,-50841.68
-113190.128,,-98375.39
-105330.8076,,-136516.87
-96671.33947,,-161752.76
-86893.12183,,-171802.19
-60128.07013,,-165774.1
-2714.127626,,-144207.91
57129.53891,,-109018.05
91928.47811,,-63353.18
104192.6121,,-11366.68
114019.0648,,42110.33
122099.3098,,91991.65
128103.2566,,133427.22
129257.1878,,162307.86
109994.0521,,175710.78
55978.8711,,172216.99
-8635.194139,,152055.52
-70082.28541,,117065.45
-102107.3284,,70498.72
-102034.2382,,16705.21
-97420.92757,,-39258.53
-93087.77369,,-92066.62
-90366.09118,,-136588.02
-88942.24035,,-168359.71
-84281.00756,,-184039.14
-44815.33704,,-181788.92
18439.65273,,-161534.16
79000.13971,,-125037.5
116618.215,,-75760.89
128642.2466,,-18521.3
133100.1679,,41013.61
132902.6232,,96917.58
127700.9252,,143607.17
118088.4681,,176387.03
90215.84275,,191895.09
34432.05767,,188423.48
-26754.76989,,166101.04
-74838.51312,,126923.02
-86969.87772,,74612.28
-89070.40525,,14301.19
-92627.59598,,-47957.54
-97712.39432,,-105812.97
-102764.8273,,-153301.05
-105834.2583,,-185501.76
-83254.74957,,-199076.96
-28615.64202,,-192618.52
30165.86961,,-166772.58
84304.20867,,-124143.02
119961.4996,,-69005.28
124358.1324,,-6874.46
119215.2642,,56028.94
111710.0402,,113375.96
102921.2896,,159349.2
93504.09728,,189238.14
73793.52436,,199949.32
28075.98151,,190364.15
-25920.20046,,161484.5
-72660.0227,,116332.29
-94087.38841,,59609.38
-103855.3243,,-2833.78
-112768.8423,,-64641.73
-120148.986,,-119621.09
-125585.1538,,-162353.02
-119136.8543,,-188697.67
-83636.33855,,-196161.36
-35856.04261,,-184113.4
14605.12157,,-153843.97
63942.39532,,-108452.8
96464.49643,,-52561.37
99334.95216,,8144.26
94224.71752,,67505.84
89638.72071,,119555.03
87189.05892,,159156.87
86356.85877,,182543.41
81044.20674,,187666.95
46099.17654,,174340.36
-4730.925528,,144172.82
-55599.562,,100339.4
-100399.6552,,47233.67
-124785.9448,,-9954.38
-130741.88,,-65706.63
-131173.0899,,-114671.67
-126860.4102,,-152162.53
-118840.6937,,-174618.37
-100990.9482,,-179975.12
-57699.19547,,-167885.67
-3847.718698,,-139745.5
48373.0642,,-98513.45
79926.66422,,-48357.97
86089.12958,,5808.39
90358.98332,,58831.71
96365.65702,,105792.75
102436.4802,,142417.93
108109.04,,165412.5
103021.6936,,172716.83
63244.75267,,163683.64
7128.597156,,139160.95
-51224.65506,,101453.84
-102469.4267,,54141.09
-122607.7673,,1743.02
-119802.7575,,-50730.45
-113344.1762,,-98292.3
-105401.5285,,-136476.9
-96697.93805,,-161757.4
-86858.11899,,-171840.46
-60157.52973,,-165828.15
-2783.775661,,-144260.29
57013.62276,,-109057.53
91719.75752,,-63376.74
103937.3104,,-11377.57
113722.1442,,42107.03
121770.2474,,91993.33
127813.2651,,133435.68
129060.1795,,162327.89
109976.0812,,175746.18
56127.73372,,172266.08
-8466.617282,,152108.6
-69971.73369,,117105.79
-102116.5373,,70507.32
-102057.9758,,16667.67
-97429.55535,,-39345.72
-92988.66606,,-92192.97
-90192.82045,,-136730.99
-88672.36539,,-168491.23
-84067.19077,,-184134.65
-45041.53669,,-181835.47
18231.73681,,-161534.34
78856.90973,,-125007.35
116209.5357,,-75722.66
128215.1941,,-18493.85
132761.6284,,41022.53
132671.2826,,96913.64
127488.5836,,143605.1
117816.3132,,176401.33
90040.78389,,191929.88
34329.77609,,188466.58
-26815.83486,,166125.41
-74775.92823,,126896.09
-86672.33129,,74509.52
-88802.49724,,14118.57
-92332.19532,,-48197.95
-97335.00747,,-106067.09
-102350.2472,,-153515.7
-105453.6081,,-185631.65
-83201.95475,,-199099.26
-28690.78859,,-192539.39
30172.75395,,-166623.28
84369.38636,,-123967.44
119923.9039,,-68844.2
124127.1048,,-6752.65
118938.0579,,56107.77
111482.6782,,113425.05
102776.0926,,159388.01
93448.97788,,189280.02
73860.35608,,199993.19
28111.61019,,190393.85
-25941.47932,,161475.97
-72526.26986,,116265.64
-93609.50811,,59480.64
-103303.0126,,-3006.3
-112222.3869,,-64819.66
-119619.6073,,-119756.35
-125075.2658,,-162403.05
-118942.9306,,-188639.84
-83558.46507,,-196001.25
-35659.52607,,-183883.73
14808.29892,,-153594.15
64111.64273,,-108232.95
96538.92774,,-52406.58
99280.81623,,8223.51
94166.91591,,67523.65
89439.87959,,119540.81
86888.60677,,159140.84
85982.51176,,182543.27
80706.74011,,187681.34
45862.15864,,174351.87
-4952.923054,,144158.93
-55854.95303,,100286.15
-100572.4341,,47145.43
-124509.2302,,-10053.92
-130411.8789,,-65783
-130931.3334,,-114694.1
-126769.2151,,-152117.66
-118832.6918,,-174516.79
-100852.4568,,-179847.61
-57515.95587,,-167770.68
-3763.407917,,-139673.61
48405.51894,,-98495.91
79723.44216,,-48384.44
85756.35681,,5762.26
89945.11842,,58790.94
95932.65902,,105770.58
101980.2364,,142410.44
107616.1841,,165402.68
102682.8411,,172685.68
63089.54216,,163622.47
7095.069539,,139078.24
-51182.45497,,101373.01
-102381.3608,,54089.89
-122496.2321,,1739.75
-119699.5371,,-50687.24
-113255.0822,,-98225.18
-105288.4734,,-136421.2
-96587.52043,,-161746.55
-86710.32926,,-171891.66
-60170.40434,,-165934.75
-2954.319472,,-144394.35
56691.31061,,-109181.01
91101.9106,,-63456.52
103235.6892,,-11397.63
113076.5364,,42141.24
121200.2332,,92059.5
127302.9747,,133505.6
128696.6507,,162379.54
109942.1066,,175771.55
56254.87045,,172271.83
-8349.98588,,152109.86
-69866.8593,,117116.5
-101991.0099,,70531.81
-101920.4231,,16697.16
-97292.98619,,-39330.05
-92769.44015,,-92211.93
-89881.68417,,-136797.56
-88286.8872,,-168603.22
-83773.53356,,-184272.66
-45120.57246,,-181967.1
18086.98691,,-161623.2
78659.05209,,-125023.98
115828.1256,,-75653.49
127873.7042,,-18345.52
132545.2188,,41224.95
132557.4675,,97133.82
127528.4591,,143805.8
117958.6939,,176554.44
90292.59864,,192023.19
34539.39075,,188505
-26683.91486,,166126.65
-74673.24432,,126882.29
-86508.00127,,74498.28
-88544.73693,,14116.61
-91970.6335,,-48195.87
-96922.26016,,-106073.66
-101915.6399,,-153542.74
-105054.4059,,-185681.67
-83122.51665,,-199160.63
-28647.82854,,-192587.87
30298.77309,,-166629.77
84497.10423,,-123909.41
119978.9786,,-68716.17
124185.5322,,-6571.32
119028.1354,,56306.37
111592.6041,,113595.94
102830.4521,,159491.45
93460.7349,,189294.32
73781.36501,,199921.12
27991.58132,,190260.32
-26108.04452,,161318.09
-72514.95987,,116119.18
-93199.66652,,59368.52
-102811.4084,,-3079.23
-111730.8273,,-64863.73
-119170.3819,,-119788.17
-124703.2433,,-162434.89
-118717.9826,,-188672.33
-83395.87848,,-196022.76
-35447.67624,,-183876.48
14983.5813,,-153544.18
64276.86683,,-108139.18
96593.19777,,-52284.65
99267.71811,,8344.7
94141.34552,,67611.35
89335.72046,,119569.99
86698.21461,,159103.09
85665.69813,,182449.3
80304.3193,,187556.38
45539.39945,,174225.96
-5235.180883,,144056.4
-56006.14023,,100218.67
-100547.7131,,47111.05
-124222.055,,-10065.82
-130169.4519,,-65783.97
-130784.5272,,-114689.98
-126726.1209,,-152106.41
-118839.0844,,-174491.73
-100714.5465,,-179804.11
-57339.86882,,-167712.59
-3673.285684,,-139615.62
48465.42161,,-98459.84
79627.06144,,-48390.74
85542.98705,,5704.24
89629.95882,,58688.94
95598.0087,,105648.49
101624.486,,142300.04
107213.1821,,165331.36
102365.357,,172665.61
62922.70874,,163646.23
7009.015323,,139123.11
-51174.36363,,101412.11
-102313.0539,,54104.84
-122537.404,,1728.82
-119829.5796,,-50709.55
-113428.934,,-98237.08
-105366.6151,,-136406.36
-96608.35226,,-161704.33
-86674.16414,,-171839.09
-60222.17098,,-165899
-3116.816654,,-144398.86
56465.24506,,-109232.32
90825.33012,,-63538.39
102905.5539,,-11475.88
112670.7182,,42104.87
120760.7532,,92090.96
126898.587,,133607.13
128423.423,,162528.53
109884.6626,,175930.17
56400.20149,,172402.44
-8060.441382,,152189.2
-69633.5965,,117142.15
-102075.0078,,70518.78
-101967.8535,,16667.35
-97294.90844,,-39359.69
-92670.64544,,-92236.53
-89686.91107,,-136823.79
-87991.21833,,-168642.14
-83536.29214,,-184330.59
-45161.92319,,-182039.32
18040.22706,,-161693.71
78551.04846,,-125070.85
115459.0089,,-75656.92
127478.0336,,-18294.66
132247.2253,,41328.95
132349.7304,,97278.71
127467.4836,,143971.51
118011.8016,,176716.71
90446.06572,,192156.65
34614.26909,,188586.13
-26714.40264,,166137.57
-74571.40977,,126815.64
-86322.34768,,74361.67
-88280.62871,,13933.89
-91621.32044,,-48388.66
-96524.98025,,-106237.84
-101488.4086,,-153648.99
-104673.2193,,-185719.41
-83112.19014,,-199140.22
-28756.2792,,-192534.07
30292.24638,,-166569.11
84554.05647,,-123857.63
119945.9875,,-68671.98
124098.8075,,-6520.01
118954.017,,56381.25
111542.3127,,113698.85
102747.8847,,159606.56
93384.38134,,189387.55
73735.00749,,199952.54
27904.72244,,190201.26
-26295.44154,,161165.12
-72464.98137,,115898.24
-92698.4063,,59127.22
-102239.919,,-3287.75
-111180.5721,,-64998.25
-118656.2918,,-119830.99
-124239.1764,,-162393.62
-118447.3477,,-188572.67
-83192.70112,,-195896.63
-35176.28135,,-183751.16
15210.3174,,-153436.47
64448.84115,,-108055.4
96624.71373,,-52224.48
99162.39669,,8383.42
94039.06394,,67629.65
89140.63443,,119567.06
86408.31249,,159077.5
85285.31614,,182400.72
79920.80807,,187487.09
45286.73533,,174141.9
-5451.322252,,143967.77
-56197.06883,,100139.73
-100596.7081,,47058.51
-123893.842,,-10076.46
-129842.7141,,-65743.47
-130545.4082,,-114600.14
-126583.4721,,-151981.85
-118719.3684,,-174356.89
-100574.0882,,-179685.71
-57193.19668,,-167630.27
-3544.629043,,-139575.14
48529.70523,,-98452.38
79469.70516,,-48398.86
85258.09172,,5696.7
89209.79073,,58688.53
95010.15782,,105649.86
100980.3088,,142291.35
106579.7784,,165304.3
101963.0256,,172624.14
62750.01916,,163608.35
6979.689834,,139113.64
-51069.98099,,101449.64
-102152.1213,,54189.89
-122366.6814,,1839.98
-119629.2632,,-50608.18
-113255.7974,,-98180.26
-105240.4172,,-136411.45
-96520.73342,,-161762.94
-86559.41028,,-171921.28
-60121.94575,,-165968.15
-3074.080118,,-144429.79
56341.86343,,-109223.1
90373.06492,,-63509.76
102349.7107,,-11458.56
112130.0295,,42088.2
120271.6524,,92039.43
126459.554,,133543.82
128146.2166,,162489.59
109941.1678,,175946.46
56608.56445,,172482.88
-7917.747845,,152314.05
-69518.88734,,117269.56
-101983.2762,,70601.2
-101919.5738,,16670.15
-97267.05817,,-39445.73
-92571.4931,,-92393.52
-89511.62869,,-137015.38
-87733.01098,,-168827.57
-83326.27515,,-184477.71
-45301.80041,,-182132.03
17823.10221,,-161732.25
78332.98484,,-125066.92
115090.2051,,-75626.74
127128.1394,,-18253.02
132029.0276,,41372.22
132240.0728,,97319.74
127443.5225,,144011.23
117978.4975,,176758.16
90526.97903,,192201.03
34763.26582,,188628.84
-26569.29512,,166165.78
-74492.2846,,126809.62
-86236.38287,,74300.62
-88131.98961,,13805.32
-91378.40168,,-48579.84
-96201.37169,,-106465.18
-101125.9527,,-153868.73
-104360.1608,,-185883.1
-83188.36489,,-199211.28
-28839.5171,,-192501.22
30332.56892,,-166450.53
84679.71798,,-123693.24
120025.8726,,-68507.33
124260.4553,,-6388.94
119198.4557,,56467.02
111815.898,,113748.74
102927.9504,,159640.11
93498.06231,,189419.8
73727.81023,,199983.71
27757.87148,,190216.3
-26454.80948,,161142.85
-72513.52936,,115824.87
-92554.28225,,59006.5
-102056.7241,,-3433.15
-110937.2957,,-65134.83
-118361.5617,,-119927.51
-123958.7961,,-162432.29
-118311.9855,,-188553.07
-83111.87722,,-195831.38
-34980.52478,,-183656.93
15485.19915,,-153326.06
64740.84434,,-107935.35
96850.15343,,-52098.86
99290.87452,,8506.73
94134.37177,,67735.17
89140.67914,,119634.09
86310.36714,,159088.11
85096.26509,,182349.34
79672.6143,,187385.92
45037.24516,,174018.56
-5717.129197,,143855.67
-56445.12849,,100065.59
-100678.0685,,47033.2
-123677.2089,,-10059.55
-129643.9176,,-65702.26
-130446.8817,,-114553.56
-126556.6947,,-151941.07
-118696.972,,-174322.26
-100439.4413,,-179650.1
-56956.71522,,-167586.2
-3317.714133,,-139520.93
48706.99927,,-98394.05
79433.13771,,-48347.19
85117.45454,,5731.8
88969.28596,,58702.47
94674.88166,,105644.52
100595.5458,,142272.63
106188.3099,,165278.37
101730.7462,,172595.18
62673.44209,,163579.06
6986.261247,,139087.76
-51012.35819,,101433.8
-102060.9262,,54192.41
-122340.664,,1866.47
-119627.9668,,-50560.47
-113275.154,,-98125.36
-105255.4375,,-136372.21
-96542.81694,,-161762.88
-86537.63968,,-171974.07
-60102.32092,,-166069.72
-3126.3832,,-144557.39
56175.61116,,-109342.67
90057.99473,,-63588.56
101983.0974,,-11477.75
111748.1275,,42126.94
119882.1956,,92115.89
126092.896,,133628.74
127877.3699,,162557.05
109865.9319,,175983.38
56705.61572,,172491.78
-7775.009605,,152308.46
-69367.47663,,117264.97
-101919.3503,,70606.28
-101913.7623,,16682.19
-97264.9124,,-39439.31
-92484.85774,,-92408.8
-89345.82345,,-137063.75
-87485.13013,,-168909.33
-83110.84904,,-184579.97
-45394.56015,,-182231.38
17709.77887,,-161801.34
78231.68674,,-125082.5
114721.3566,,-75576.89
126731.5747,,-18141.3
131734.1634,,41526.92
132035.152,,97487.75
127346.1136,,144160.07
117940.9019,,176861.53
90596.71648,,192246.09
34810.51741,,188618.89
-26547.47981,,166117.48
-74407.43737,,126745.34
-86076.12086,,74239.23
-87894.70349,,13755.27
-91043.93018,,-48621.96
-95796.40279,,-106509.77
-100675.431,,-153924.41
-103940.9314,,-185948.21
-83159.66525,,-199270.34
-28953.51099,,-192528.69
30299.13071,,-166420.75
84725.00261,,-123592.37
119953.9894,,-68341.8
124057.5014,,-6186.22
118956.7887,,56666.17
111592.0677,,113903.5
102752.221,,159722.89
93379.46396,,189424.13
73686.10188,,199923.96
27725.46145,,190119.82
-26559.46035,,161038.55
-72404.40815,,115733.32
-92025.93172,,58935.43
-101445.7168,,-3486.78
-110346.9861,,-65178.17
-117811.6641,,-119964.41
-123441.5321,,-162458.96
-118085.6965,,-188558.75
-83036.32832,,-195803.54
-34810.83033,,-183588.34
15681.40276,,-153220.27
64873.74781,,-107808
96842.95617,,-51974
99163.24606,,8603.87
94018.32152,,67785.99
88931.60092,,119632.06
86015.45823,,159039.6
84718.07357,,182269.76
79350.07862,,187292.84
44904.4758,,173924.96
-5836.442809,,143766.19
-56575.30505,,99977.49
-100679.7225,,46941.51
-123274.8328,,-10155.28
-129227.3705,,-65793.24
-130105.0788,,-114622.02
-126361.4299,,-151966.31
-118589.2813,,-174290.43
-100232.1065,,-179563.42
-56733.91303,,-167466.75
-3159.910817,,-139406.35
48805.12343,,-98325.6
79243.77373,,-48354.46
84769.84021,,5643.06
88553.81174,,58554.03
94270.27038,,105478.49
100173.0979,,142135.92
105708.2392,,165205.18
101345.6257,,172594.71
62467.00137,,163633.78
6871.10506,,139162.72
-51007.44081,,101492.74
-101966.2442,,54213.43
-122217.9082,,1850.27
-119559.1235,,-50592.89
-113236.7984,,-98144.28
-105148.1492,,-136354.11
-96399.72107,,-161701.99
-86369.9569,,-171885.31
-60078.85159,,-165982.12
-3230.363516,,-144501.23
55947.62337,,-109336.14
89623.34271,,-63629.83
101470.7954,,-11545.31
111196.9782,,42065.99
119302.3466,,92093.4
125523.5524,,133663.83
127437.8452,,162649.39
109777.5084,,176113.46
56824.66111,,172627.57
-7595.882725,,152415.85
-69220.53626,,117318.45
-101868.3436,,70596.52
-101779.6519,,16618.32
-97109.34426,,-39533.25
-92247.12458,,-92502.16
-89026.28291,,-137129.63
-87086.2856,,-168933.41
-82787.82163,,-184564.58
-45430.32294,,-182193.13
17608.16784,,-161762.77
78057.16432,,-125061.18
114267.4821,,-75576.56
126241.2222,,-18149.35
131323.2936,,41533.91
131704.6591,,97532.4
127145.9314,,144251.49
117821.8118,,176987.66
90662.87764,,192375.18
34937.11769,,188710.37
-26460.1739,,166137.69
-74264.2968,,126681.28
-85819.16521,,74104.13
-87571.18435,,13583.23
-90640.43649,,-48789.51
-95310.60997,,-106639.6
-100158.7928,,-154001.82
-103476.0599,,-185977.92
-83077.00849,,-199268.44
-28975.86274,,-192510.72
30356.48529,,-166392.51
84768.49911,,-123548.3
119809.4183,,-68271.37
123906.2695,,-6084.31
118838.0115,,56791.02
111511.3332,,114028.05
102640.3281,,159816.37
93260.01623,,189460.2
73593.65506,,199891.42
27610.12645,,190026.8
-26743.68343,,160908.22
-72374.45681,,115593.57
-91579.65679,,58808.01
-100942.0873,,-3592.43
-109835.8464,,-65263.96
-117318.0482,,-120036.68
-122959.3602,,-162520.33
-117789.4912,,-188603.4
-82854.83216,,-195818.64
-34574.6618,,-183560.8
15942.78406,,-153145.27
65139.06302,,-107694.66
96897.89675,,-51845.42
99052.15789,,8716.45
93922.65605,,67852.45
88751.22234,,119632.34
85747.19259,,158969.35
84363.84313,,182141.22
78953.8716,,187131.47
44597.80986,,173763.15
-6144.449847,,143635.94
-56748.97811,,99903.37
-100608.1075,,46935.19
-122870.3109,,-10097.7
-128860.1314,,-65690.02
-129826.7102,,-114500.32
-126145.065,,-151853.5
-118343.725,,-174204.8
-100034.6959,,-179508.06
-56566.18554,,-167429.59
-3013.23867,,-139366.94
48896.67617,,-98266.26
79115.78764,,-48270.66
84514.94092,,5738.21
88171.23928,,58634.03
93722.83145,,105515.08
99575.41222,,142112.97
105119.5389,,165128.13
101016.8762,,172490.73
62378.08614,,163542.04
6863.147838,,139118.97
-50983.43503,,101514.94
-101868.7012,,54295.01
-122037.4849,,1963.67
-119333.1473,,-50484.38
-113035.8563,,-98071.85
-105006.5285,,-136332.46
-96314.248,,-161725.97
-86269.91049,,-171934.75
-59998.2512,,-166031.5
-3230.765847,,-144529.68
55780.83465,,-109333.88
89161.9133,,-63599.48
100931.8949,,-11498.76
110699.8307,,42113
118887.7665,,92126.91
125151.3511,,133676.06
127171.7253,,162641.15
109743.6678,,176094.01
56922.42765,,172611.72
-7530.839149,,152418.37
-69157.99608,,117347.16
-101729.0028,,70646.55
-101682.69,,16670.8
-97065.0431,,-39506.16
-92143.14427,,-92526.59
-88846.97722,,-137217.42
-86829.32995,,-169073.65
-82559.11858,,-184724.15
-45574.71521,,-182327.38
17429.71151,,-161832.67
77946.61259,,-125049.32
113956.2564,,-75494.25
125903.4873,,-18031.01
131088.3768,,41646.66
131568.0899,,97609.24
127064.9734,,144285.22
117737.0093,,176993.39
90705.39066,,192377.66
34982.31292,,188726.49
-26425.12636,,166164.07
-74221.60497,,126694.13
-85723.85737,,74071.78
-87406.80962,,13484.84
-90399.35057,,-48949.31
-95025.04409,,-106828.44
-99854.36199,,-154171.32
-103187.7671,,-186083.79
-83043.30206,,-199288.57
-29011.2679,,-192452.12
30444.55116,,-166284.12
84964.97094,,-123424.17
119891.5386,,-68153.79
123996.1683,,-5976.05
118993.669,,56901.68
111692.9187,,114153.06
102750.4775,,159953.46
93337.7556,,189587.11
73593.74447,,199972.96
27477.80412,,190031.38
-26951.77817,,160825.22
-72449.9163,,115442.05
-91439.55606,,58631.8
-100765.9108,,-3741.31
-109592.123,,-65345.55
-117021.0382,,-120037.67
-122676.0742,,-162456.35
-117610.0513,,-188509.07
-82675.57116,,-195730.86
-34258.83165,,-183503.4
16381.72762,,-153121.49
65518.0592,,-107689.63
97163.48018,,-51835.74
99165.66004,,8751.2
94007.14564,,67921.22
88739.82295,,119729.68
85630.91882,,159077.67
84149.80282,,182236.26
78708.94119,,187188.87
44368.48096,,173764.83
-6336.361925,,143575.57
-56995.65196,,99790.01
-100785.7592,,46793.64
-122689.3512,,-10231.41
-128697.6342,,-65778.16
-129730.0166,,-114515.73
-126156.8667,,-151790.12
-118442.0727,,-174081.5
-99952.75437,,-179362.85
-56372.75355,,-167305.68
-2869.338139,,-139296.12
49027.03154,,-98257.04
79065.67503,,-48306.79
84349.76153,,5688.15
87922.64318,,58600.59
93431.14119,,105513.38
99261.63843,,142136.8
104778.496,,165155.24
100718.0334,,172496.1
62162.25769,,163511.79
6757.647605,,139057.57
-50971.00746,,101442.27
-101793.7335,,54235.27
-122045.308,,1932.64
-119387.4621,,-50486.86
-113118.8706,,-98060.38
-105054.093,,-136327
-96341.20421,,-161740.74
-86260.38864,,-171971.2
-60017.07137,,-166079.04
-3343.329232,,-144572.96
55591.64948,,-109361.84
88857.70605,,-63610.74
100575.9657,,-11500.46
110301.3438,,42111.77
118466.6596,,92122.52
124753.9371,,133673.77
126912.0427,,162652.27
109746.7524,,176128.33
57056.80633,,172669.75
-7456.720764,,152488.04
-69136.00196,,117407.08
-101743.9785,,70674.27
-101694.9387,,16651.73
-97084.3103,,-39573.65
-92095.98209,,-92631.79
-88717.82884,,-137342.58
-86611.04281,,-169200.32
-82365.41836,,-184837.01
-45702.43307,,-182414.57
17269.58362,,-161883.92
77752.46534,,-125054.86
113578.646,,-75446.75
125541.5679,,-17930.1
130867.5415,,41790.01
131451.7267,,97772.26
127072.9306,,144438.46
117818.2355,,177110.15
90858.05307,,192443.2
35145.79357,,188742.32
-26309.97018,,166144.56
-74154.01329,,126657.16
-85643.25698,,74028.43
-87252.67199,,13434.15
-90148.42989,,-49017.3
-94660.88947,,-106922.68
-99437.14433,,-154288.55
-102805.1052,,-186202.9
-82989.74728,,-199374.98
-29061.2464,,-192471.1
30493.81441,,-166216.94
85094.11932,,-123279.03
119947.418,,-67965.36
123976.1858,,-5793.32
118958.1298,,57033.98
111684.6486,,114210.81
102774.7068,,159939.61
93379.06162,,189525.84
73608.94365,,199894.98
27423.35527,,189958.22
-27062.82163,,160760.42
-72332.0332,,115373.36
-91010.62608,,58542.51
-100277.8828,,-3858.16
-109123.8539,,-65477.81
-116605.5192,,-120154.55
-122306.1082,,-162518.81
-117389.4396,,-188485.33
-82522.05938,,-195610.06
-34090.16539,,-183301.72
16537.56398,,-152878.32
65648.41457,,-107455.98
97244.4829,,-51659.59
99196.50545,,8837.26
94041.61203,,67906.66
88693.77836,,119625.98
85489.52168,,158912.88
83927.71589,,182046.53
78411.35006,,187009.53
44120.91304,,173622.82
-6603.241754,,143484.64
-57172.81189,,99749.53
-100783.6134,,46791.24
-122404.3664,,-10214
-128453.1955,,-65757.94
-129579.4999,,-114502.56
-126097.8134,,-151784.62
-118396.2516,,-174077.67
-99834.06661,,-179354.29
-56196.5771,,-167292.23
-2735.540597,,-139287.17
49111.65525,,-98269.16
79011.58381,,-48356.3
84193.96987,,5594.28
87656.88093,,58470.88
93074.94379,,105371.24
98864.31382,,142012.86
104348.7167,,165075.77
100383.0702,,172472.83
61967.75281,,163538.16
6664.351423,,139113.04
-50996.53316,,101502.56
-101758.9988,,54283.28
-122022.0622,,1964.55
-119404.1812,,-50463.18
-113159.2379,,-98033.44
-105066.4312,,-136291.69
-96338.92433,,-161704.4
-86231.19727,,-171952.34
-59979.11811,,-166098.78
-3331.795732,,-144643.32
55451.28053,,-109476.69
88447.23862,,-63744.08
100090.1729,,-11613.5
109814.9252,,42057.46
118009.03,,92151.08
124314.8594,,133785.87
126590.3564,,162824.21
109675.8973,,176319.57
57197.08588,,172835.83
-7214.070226,,152594.3
-68855.48757,,117438.53
-101644.4685,,70638.65
-101668.6084,,16575.2
-97045.95471,,-39656.52
-91990.30304,,-92690.19
-88532.26465,,-137359.8
-86364.77129,,-169178.52
-82176.00968,,-184794.8
-45787.50381,,-182377.78
17195.55464,,-161873.18
77634.80575,,-125074.91
113243.5487,,-75482.38
125171.8253,,-17951.3
130585.999,,41815.14
131267.5931,,97861.89
127026.7072,,144585.81
117870.9856,,177282.28
91005.03814,,192591.41
35220.89544,,188820.39
-26375.19257,,166127.03
-74161.65759,,126549.57
-85537.1756,,73864.74
-87075.73558,,13262.4
-89882.93587,,-49154.44
-94346.0875,,-107003.59
-99091.80988,,-154317.61
-102463.0341,,-186203.1
-82917.19352,,-199372.6
-29043.94615,,-192480.56
30589.07754,,-166233.47
85254.51544,,-123282.45
119982.3314,,-67932.62
123982.042,,-5713.03
119000.8216,,57152.46
111751.4803,,114338.26
102797.6397,,160037.17
93355.36878,,189559.67
73510.68539,,199848.51
27195.00985,,189837.11
-27351.15914,,160588.82
-72397.12148,,115184.11
-90773.07174,,58366.14
-99999.33541,,-4001.31
-108800.2007,,-65580.03
-116252.8534,,-120218.27
-121952.5483,,-162551.4
-117171.823,,-188493.93
-82338.9986,,-195598.34
-33776.4363,,-183269.28
16949.0149,,-152822.67
66014.35733,,-107375.98
97441.04414,,-51559.31
99236.8727,,8945.89
94055.78304,,68003.82
88622.96803,,119687.67
85329.39378,,158917.98
83683.27721,,181985.18
78115.01063,,186889.25
43833.46961,,173469.03
-6844.730001,,143334.04
-57364.63456,,99638.06
-100806.2781,,46741.34
-122169.3602,,-10200.96
-128253.505,,-65700.33
-129441.0979,,-114428.4
-126042.4705,,-151717.56
-118368.6696,,-174026.03
-99628.38586,,-179308.83
-55895.18617,,-167233.78
-2530.038658,,-139200.15
49269.63738,,-98153.39
78950.56354,,-48230.49
84012.11608,,5699.7
87390.67166,,58527.99
92741.23225,,105368.57
98513.88318,,141961.46
103984.1597,,165004.16
100139.302,,172413.69
61849.86971,,163513.64
6661.400993,,139126.35
-50905.82978,,101539.59
-101616.5735,,54322.35
-122005.5666,,1988.31
-119407.7575,,-50460.48
-113186.1941,,-98046.59
-105103.7586,,-136311.28
-96371.06614,,-161724.54
-86220.69195,,-171973.83
-59987.16473,,-166125.94
-3453.478629,,-144677.14
55192.045,,-109509.77
88112.09656,,-63761.86
99738.17763,,-11601.97
109471.0212,,42101.97
117705.4933,,92216.64
124056.0262,,133848.67
126435.6823,,162860.35
109698.0703,,176318.58
57370.53542,,172807.65
-7022.336963,,152564.46
-68750.8367,,117432.97
-101717.5587,,70666.15
-101749.8793,,16617.76
-97102.90695,,-39638.5
-91963.79387,,-92739.05
-88417.06376,,-137497.08
-86170.1323,,-169389.28
-82002.20251,,-185028.93
-45848.8817,,-182569.04
17110.39449,,-161967.1
77533.55235,,-125052.02
112999.5123,,-75365.21
124945.8492,,-17791.92
130454.3472,,41960.26
131204.6952,,97956.66
127046.6896,,144626.64
117909.3412,,177292.31
91044.86895,,192601.46
35265.06248,,188847.71
-26337.77575,,166163.92
-74126.61006,,126567.45
-85450.54024,,73830.99
-86908.76805,,13160.27
-89635.59146,,-49313.87
-94020.7355,,-107183.54
-98731.9915,,-154470.29
-102141.616,,-186289.12
-82917.86407,,-199375.25
-29128.03341,,-192408.81
30620.23587,,-166113.62
85384.96022,,-123144.29
120020.5976,,-67797.71
124019.3694,,-5590.32
119075.4764,,57263.17
111852.4208,,114438.67
102868.7183,,160124.24
93396.45128,,189624.08
73542.33546,,199878.21
27155.17904,,189822.98
-27426.08219,,160529.19
-72285.54157,,115086.08
-90429.79365,,58243.92
-99613.4996,,-4129.03
-108399.5233,,-65692.34
-115867.7776,,-120293.77
-121594.6521,,-162570.69
-116964.8459,,-188443.86
-82218.74621,,-195477.55
-33628.02072,,-183092.36
17046.4685,,-152619.48
66109.97809,,-107184.44
97462.36771,,-51413.27
99203.12157,,9028.81
94025.87641,,68028.36
88506.60485,,119677.14
85106.90452,,158901.66
83365.92714,,181982.79
77753.04648,,186900.36
43562.56647,,173473.46
-7142.589348,,143303.42
-57622.26076,,99553.11
-100792.1518,,46605.68
-121790.9004,,-10358.06
-127928.0189,,-65834.37
-129227.2811,,-114498.62
-125965.5358,,-151705.28
-118370.2342,,-173943.28
-99450.55538,,-179193.25
-55637.69408,,-167132.24
-2360.567732,,-139149.3
49340.26889,,-98166.31
78822.35394,,-48295.01
83768.03503,,5611.48
87062.68216,,58444.81
92372.02613,,105307.68
98120.58188,,141924.37
103549.3736,,164981.3
99784.26692,,172393.84
61653.04025,,163492.13
6565.333195,,139107.48
-50886.69668,,101532.5
-101551.977,,54333.62
-121932.2082,,2016.09
-119365.6915,,-50427.17
-113176.9405,,-98023.04
-105078.9929,,-136309.7
-96325.55799,,-161748.38
-86166.3325,,-172016.88
-60027.6661,,-166176.43
-3564.700909,,-144724.17
54994.41087,,-109548.29
87733.90505,,-63793.47
99303.79382,,-11631.4
109025.6851,,42072.15
117276.9657,,92189.75
123650.1633,,133833.61
126140.9969,,162867.24
109624.9353,,176352.78
57457.93074,,172865.3
-6869.629844,,152632.14
-68590.6194,,117491.77
-101690.826,,70698.23
-101741.1622,,16612.42
-97091.14994,,-39681.73
-91878.45491,,-92811.26
-88243.92715,,-137583.75
-85915.68004,,-169474.98
-81774.92997,,-185100.91
-45973.91736,,-182618.85
16942.93522,,-161990.4
77350.9386,,-125047.62
112640.4986,,-75334.26
124575.6149,,-17737.66
130184.7851,,42032.47
131024.8531,,98039.46
126961.0825,,144711.19
117866.8282,,177369.15
91153.85606,,192661.21
35395.23904,,188881.59
-26261.42219,,166164.17
-74060.22537,,126528.3
-85344.10123,,73750.3
-86725.34963,,13041.72
-89359.90505,,-49459.15
-93618.13588,,-107337.11
-98280.35215,,-154609.16
-101721.4926,,-186390.73
-82818.97996,,-199423.11
-29120.52323,,-192396.64
30674.81883,,-166046.42
85440.16903,,-123035.89
119986.9806,,-67666.18
123912.6621,,-5453.42
118943.3329,,57390.63
111747.01,,114545.08
102796.388,,160199.8
93370.34444,,189659.96
73500.26947,,199867.52
27030.50101,,189763.81
-27588.75818,,160427.97
-72202.48249,,114958.91
-90007.47979,,58114.16
-99125.24809,,-4236.79
-107937.1104,,-65759.62
-115473.1352,,-120313.45
-121228.0835,,-162547.66
-116737.3498,,-188390.66
-82014.00423,,-195407.3
-33325.82513,,-183012.75
17398.32966,,-152531.12
66418.47687,,-107084.38
97629.02232,,-51301.65
99257.70453,,9143.11
94083.05217,,68126.63
88489.84104,,119735.95
84995.01169,,158902.02
83184.60979,,181919.15
77464.70898,,186784.98
43225.32335,,173333.77
-7436.559491,,143173.35
-57853.86954,,99462.25
-100844.6784,,46570.79
-121593.1322,,-10336
-127769.6792,,-65767.35
-129132.6885,,-114405.28
-125960.3949,,-151604.42
-118430.7627,,-173849.79
-99344.74222,,-179116.82
-55470.77125,,-167077.9
-2226.01023,,-139118.1
49505.6718,,-98155.24
78853.78049,,-48296.93
83695.52597,,5606.65
86885.79045,,58446.99
92068.44474,,105322.23
97763.08808,,141948.84
103172.702,,165005.65
99556.27913,,172405.06
61566.5837,,163481.49
6497.026264,,139076.74
-50869.30703,,101495.28
-101486.5758,,54310.28
-121951.2519,,2023.98
-119422.1967,,-50383.28
-113268.0462,,-97955.31
-105170.7244,,-136243.41
-96412.99801,,-161711.33
-86215.37223,,-172027.02
-59982.06854,,-166233.61
-3580.660055,,-144810.17
54842.73193,,-109634.82
87479.31868,,-63853.99
98995.16094,,-11650.96
108686.028,,42093.48
116947.4115,,92240.44
123339.7422,,133898.23
125944.5251,,162933.28
109638.7934,,176413.27
57610.05671,,172916.89
-6739.229767,,152671.26
-68545.8265,,117512.37
-101701.1078,,70693.31
-101777.1485,,16578.35
-97162.63082,,-39741.17
-91901.25369,,-92884.43
-88193.94865,,-137655.17
-85800.25563,,-169531.87
-81651.90597,,-185138.08
-46107.13376,,-182638.6
16789.69166,,-161997.28
77214.95059,,-125041.39
112365.0804,,-75306.02
124307.5728,,-17672.75
130041.0187,,42145.28
130981.0884,,98197.5
127022.1921,,144892.57
117971.8367,,177537.12
91298.74006,,192777.53
35536.59147,,188922.68
-26162.26985,,166131.77
-74041.67343,,126448.48
-85357.69109,,73660.83
-86678.8133,,12973.97
-89243.13953,,-49494.12
-93477.4093,,-107350.85
-98136.09399,,-154625.33
-101572.9876,,-186427.69
-82868.60083,,-199479.62
-29250.43157,,-192449.01
30629.31068,,-166059.33
85504.22913,,-122981.35
120054.9746,,-67540.48
124098.9416,,-5282.63
119238.6442,,57559.9
112063.9577,,114665.21
103027.818,,160242.12
93519.25177,,189625.09
73534.82527,,199781.45
26894.60241,,189662.49
-27769.44968,,160339.02
-72240.21223,,114890.1
-89935.23895,,58053.99
-99039.41739,,-4307.85
-107789.7677,,-65854.21
-115258.7819,,-120427.22
-121014.4008,,-162659.3
-116625.6805,,-188471.6
-81938.23182,,-195435.58
-33178.12481,,-182983.61
17659.39804,,-152459.4
66702.47813,,-106998.12
97896.84092,,-51230.76
99410.63516,,9177.33
94192.84394,,68116.97
88526.90024,,119688.34
84933.76791,,158830.36
83033.73552,,181839.04
77320.45082,,186709.11
43201.00465,,173269.92
-7490.784823,,143124.34
-57966.43293,,99426.81
-100815.8446,,46544.86
-121343.4185,,-10357.46
-127553.1355,,-65787.77
-128970.7725,,-114423.96
-125869.3786,,-151615.44
-118353.2469,,-173844.03
-99274.46834,,-179087.12
-55373.31764,,-167025.44
-2128.511921,,-139056.28
49553.59394,,-98108
78755.56693,,-48290.58
83515.59442,,5555.13
86624.00682,,58339.6
91752.03344,,105182.26
97422.67101,,141813.48
102809.2626,,164911.55
99263.11365,,172373.31
61377.35383,,163509.33
6429.70281,,139140.19
-50870.64813,,101561.39
-101430.8752,,54352.86
-121835.4251,,2034.8
-119306.5935,,-50393.35
-113162.0542,,-97965.2
-105050.3379,,-136235.68
-96307.45307,,-161683.07
-86122.21016,,-171991.84
-59959.26976,,-166213.81
-3623.307183,,-144823.39
54728.87215,,-109682.74
87117.66745,,-63919.2
98559.65955,,-11703.94
108233.271,,42080.94
116502.3883,,92282.12
122904.1514,,133987.2
125610.7242,,163045.21
109486.9804,,176517.27
57617.52219,,172988.29
-6699.264848,,152700.22
-68512.5671,,117505.07
-101621.8485,,70666.07
-101678.3537,,16548.57
-97063.52318,,-39762.64
-91761.95762,,-92896.35
-87982.05411,,-137663.88
-85514.46623,,-169546.08
-81389.36238,,-185163.48
-46159.70506,,-182674.43
16640.20319,,-162035.82
77034.16968,,-125069.79
111958.0104,,-75309.67
123867.7798,,-17639.3
129709.7212,,42221.88
130736.5156,,98313.44
126874.5812,,145032.51
117895.9302,,177675.44
91386.62712,,192883.48
35661.71654,,188968.67
-26106.03286,,166102.33
-73973.54531,,126346.41
-85185.31444,,73507.45
-86437.9509,,12802.8
-88915.32885,,-49648.22
-93057.1965,,-107462.75
-97667.91435,,-154686.15
-101115.4027,,-186444.31
-82745.2192,,-199467.74
-29191.9594,,-192423.67
30763.37645,,-166027.62
85670.12378,,-122940.8
120009.6005,,-67483.47
123960.6737,,-5204.02
119085.5794,,57656.37
111931.546,,114765.29
102907.1633,,160325.11
93406.06253,,189671.44
73506.34915,,199780.03
26861.1642,,189614.13
-27821.26103,,160254.97
-72068.1038,,114786.78
-89462.27604,,57947.22
-98516.07365,,-4406.28
-107257.3939,,-65936.52
-114767.133,,-120487.17
-120547.5176,,-162689.83
-116341.5451,,-188464.86
-81757.85324,,-195385.81
-32937.39652,,-182891.49
17842.72705,,-152335.13
66832.6994,,-106861.01
97821.91787,,-51104.69
99245.32166,,9270.89
94071.65278,,68165.43
88358.36808,,119691.14
84689.01631,,158797.5
82716.65367,,181785.93
76924.91435,,186650.35
42841.72271,,173214.54
-7811.442949,,143074.6
-58160.75899,,99380.23
-100730.2375,,46498.2
-120995.6701,,-10404.62
-127288.2226,,-65831.31
-128795.0878,,-114455.99
-125802.5021,,-151626.94
-118335.9466,,-173828.05
-99076.16366,,-179041.54
-55126.82261,,-166954.45
-1987.830041,,-138970.39
49638.70938,,-98022.5
78683.77312,,-48222.61
83341.34022,,5590.64
86378.71878,,58334.38
91476.16821,,105138.28
97154.31597,,141744.08
102518.8687,,164838.89
99040.98201,,172322.2
61275.20636,,163499.19
6390.229629,,139177.91
-50798.04966,,101638.25
-101346.2515,,54447.19
-121958.9856,,2119.78
-119574.0544,,-50339.72
-113480.8795,,-97952.11
-105304.2984,,-136256.85
-96448.7161,,-161720.57
-86206.65505,,-172024.47
-59989.48932,,-166226.23
-3697.246754,,-144811.83
54577.50613,,-109654.95
86987.44619,,-63889.1
98425.59378,,-11683.92
108058.9721,,42086.21
116273.2829,,92277.49
122668.6087,,133984.03
125469.0588,,163055.3
109457.1631,,176546.88
57736.56759,,173034.99
-6359.160705,,152753.63
-68212.07025,,117550.67
-101798.2038,,70690.12
-101895.6574,,16542.05
-97214.75508,,-39802.07
-91824.58721,,-92964.25
-87946.47014,,-137750.27
-85410.97765,,-169637.24
-81293.24988,,-185244.2
-46220.99355,,-182730.8
16572.29859,,-162058.39
76926.7919,,-125056.24
111734.9847,,-75265.76
123648.8669,,-17577.18
129585.2667,,42287.85
130688.4594,,98371.72
126930.5947,,145077.67
118006.169,,177708.01
91466.19933,,192906.15
35709.10224,,188981.04
-26099.99789,,166097.57
-73986.55403,,126312.43
-85172.21632,,73432.9
-86352.34372,,12685.04
-88761.23592,,-49797.68
-92816.37881,,-107619.02
-97388.02581,,-154818.73
-100845.3936,,-186528.61
-82719.06766,,-199494.69
-29309.03784,,-192402.29
30722.47275,,-165978.86
85685.8594,,-122885.8
120024.0845,,-67432.56
123994.7824,,-5152.84
119121.0293,,57721.04
111987.2465,,114852.92
102973.995,,160429.21
93487.46759,,189765.33
73543.31893,,199824.43
26802.46851,,189574.01
-27936.2831,,160117.87
-72005.42951,,114573.12
-89174.38557,,57706.58
-98170.47097,,-4612.21
-106908.0808,,-66056.88
-114460.3329,,-120500.57
-120257.9284,,-162610.1
-116183.116,,-188331.87
-81629.86715,,-195246.25
-32734.35327,,-182779.07
18078.44854,,-152259.31
67001.09744,,-106808.65
97967.60654,,-51052.5
99346.03862,,9340.19
94152.20847,,68251.62
88365.52064,,119774.9
84603.99027,,158849
82559.87854,,181778.83
76717.84779,,186574.53
42677.39268,,173082.15
-7975.236532,,142917.17
-58353.74395,,99238.71
-100771.6329,,46410.04
-120768.8446,,-10416.59
-127104.7148,,-65764.95
-128684.3572,,-114329.45
-125781.2233,,-151472.38
-118353.2469,,-173681.6
-98899.58488,,-178932.34
-54869.82225,,-166896.06
-1788.094853,,-138957.41
49786.18619,,-98034
78652.21246,,-48231.47
83193.81871,,5605.56
86138.66104,,58378.41
91119.03204,,105197.89
96739.73581,,141792.64
102074.2031,,164849.15
98673.20641,,172279.91
61035.37214,,163411.07
6268.546732,,139069.75
-50784.90684,,101543.54
-101252.1954,,54391.57
-121851.6972,,2109.18
-119413.9712,,-50321.11
-113325.669,,-97932.86
-105182.6155,,-136262.8
-96363.73477,,-161760.95
-86114.52116,,-172087.01
-59971.47381,,-166283.81
-3759.563417,,-144837.29
54377.27921,,-109636
86511.57755,,-63835.43
97861.83809,,-11622.54
107492.9366,,42124.88
115779.667,,92275.5
122199.6244,,133945.33
125102.8031,,163003.71
109366.3704,,176513.72
57788.51304,,173042.48
-6385.938094,,152802.56
-68263.21104,,117618.08
-101638.5229,,70738.1
-101700.8396,,16533.27
-97051.36383,,-39889.19
-91616.40306,,-93127.01
-87659.0714,,-137962.62
-85052.41097,,-169858.81
-80964.1428,,-185433.08
-46293.77083,,-182855.3
16419.50207,,-162104.26
76750.0343,,-125028.23
111264.3464,,-75184.12
123110.7263,,-17470.77
129133.5379,,42389.86
130314.7382,,98447.64
126659.6915,,145118.51
117812.2899,,177718.46
91492.6191,,192900.36
35820.0563,,188974.46
-26063.87747,,166097.8
-73882.21608,,126313.48
-84899.25681,,73416.31
-86014.74297,,12628.34
-88358.94923,,-49908.13
-92379.04458,,-107776.94
-96935.98413,,-154994.49
-100408.73,,-186676.33
-82627.20199,,-199567.93
-29325.04169,,-192371.72
30816.5736,,-165844.19
85855.68796,,-122676.36
119887.56,,-67196.38
123769.611,,-4939.08
118960.9461,,57878.39
111852.2867,,114943.33
102807.4298,,160463.3
93264.79951,,189764.56
73394.36691,,199808.8
26648.77792,,189553.74
-28135.03482,,160092.27
-71854.91286,,114535.69
-88691.54318,,57652.43
-97658.43721,,-4680.84
-106364.7993,,-66129.74
-113881.1992,,-120562.51
-119666.1883,,-162646.12
-115830.8078,,-188331.41
-81525.93154,,-195205.39
-32574.04656,,-182700.86
18325.92706,,-152153.13
67242.54098,,-106689.25
97932.91663,,-50938.5
99077.50476,,9429.4
93870.08475,,68300.47
88015.1794,,119776.75
84150.87571,,158808.97
82040.78162,,181712.31
76235.13952,,186500.95
42348.77734,,173016.4
-8274.258169,,142863.1
-58591.47711,,99188.65
-100677.7556,,46351.34
-120155.468,,-10490.95
-126510.3372,,-65847.58
-128153.5927,,-114397.31
-125313.446,,-151495.26
-117881.7144,,-173637.16
-98688.4056,,-178820.34
-54806.07507,,-166744.05
-1693.904602,,-138813.57
49847.69819,,-97949.18
78309.292,,-48238.37
82651.96772,,5506.57
85512.18635,,58219.73
90374.49543,,105031.06
95953.40144,,141666.82
101289.1205,,164791.78
98200.19879,,172288.12
60957.27515,,163457.21
6251.201779,,139117.43
-50779.18479,,101565.73
-101114.4192,,54382.08
-121496.7068,,2082.56
-119073.6436,,-50340.26
-113016.5443,,-97924.89
-104856.3695,,-136224.64
-95999.08841,,-161708.67
-85756.75914,,-172048.55
-59834.32351,,-166285.66
-3789.06772,,-144891.61
54168.02218,,-109733.99
85934.54491,,-63949.55
97212.02817,,-11716.32
106818.2268,,42083.82
115091.9485,,92304.24
121531.4414,,134040.25
124539.4051,,163142.43
109235.568,,176663
57937.9568,,173169.21
-6154.329318,,152883.93
-68030.21646,,117647.8
-101359.1261,,70726.69
-101374.2806,,16502.66
-96705.67175,,-39914.79
-91210.85301,,-93130.62
-87164.96374,,-137940.54
-84495.89723,,-169820.85
-80493.32565,,-185396.59
-46342.72115,,-182835.53
16275.37802,,-162105.27
76556.78112,,-125038.81
110702.2,,-75181.12
122497.0815,,-17428.98
128624.2758,,42485.48
129893.8548,,98592.85
126345.7836,,145288.42
117586.7161,,177875.08
91502.23035,,193006.23
35881.70241,,189006.59
-26049.43824,,166055.89
-73705.81611,,126218.82
-84479.04402,,73302.05
-85497.34479,,12525.75
-87756.21209,,-49981.21
-91665.17456,,-107820.37
-96183.93733,,-155021.34
-99701.61017,,-186702.47
-82473.46669,,-199601.06
-29412.79464,,-192405.58
30765.2987,,-165860.75
85850.85998,,-122655.08
119642.2272,,-67125.93
123412.296,,-4825.84
118598.8478,,58009.48
111511.2438,,115056.18
102469.5608,,160523.54
92919.19683,,189752.17
73222.21377,,199725.14
26543.05417,,189420.22
-28291.67584,,159941.26
-71606.49557,,114397.93
-88045.35425,,57546.43
-96983.28042,,-4753.23
-105668.0507,,-66179.99
-113194.9113,,-120606.6
-119014.635,,-162694.52
-115436.3442,,-188382.69
-81326.59868,,-195246.2
-32272.43212,,-182712.26
18710.68999,,-152120.23
67522.83186,,-106609.87
97901.53478,,-50826.95
98826.94171,,9544.95
93561.63067,,68386.26
87628.36011,,119804.09
83643.80403,,158763.67
81448.46039,,181599.65
75717.11549,,186344.78
42073.18033,,172852.76
-8487.717329,,142730.34
-58765.19486,,99116.85
-100519.9969,,46353.99
-119570.0311,,-10420.64
-125970.8108,,-65734.57
-127680.1828,,-114276.98
-124916.3002,,-151402.13
-117544.4713,,-173593.51
-98389.11574,,-178828.84
-54565.5703,,-166787.27
-1534.313146,,-138861.29
49925.70578,,-97970.99
77949.74183,,-48216.61
82084.50163,,5569.03
84849.59124,,58300.7
89579.08625,,105099.13
95098.04488,,141696.2
100418.7435,,164775.06
97613.19728,,172240.86
60720.25725,,163411.72
6123.796835,,139108.16
-50783.83395,,101613.03
-100924.9211,,54481.93
-121014.8926,,2207.25
-118505.5069,,-50230.42
-112450.5088,,-97864.45
-104307.4553,,-136228.33
-95483.52307,,-161766
-85272.30743,,-172129.87
-59716.79803,,-166356.47
-3926.486245,,-144927.8
53835.2047,,-109730.94
85098.50026,,-63921.12
96251.08197,,-11685.04
105873.508,,42099.57
114224.2985,,92299.61
120692.7592,,134024.98
123822.227,,163133.77
109000.3382,,176674.65
58045.37929,,173202.28
-6030.545358,,152924.81
-67869.46271,,117673.91
-100951.9668,,70717.16
-100868.0136,,16448.6
-96200.87996,,-40005.53
-90658.94373,,-93236.2
-86527.44729,,-138034.07
-83785.73761,,-169881.03
-79869.84609,,-185415.4
-46289.88162,,-182819.61
16202.73485,,-162070.98
76270.54468,,-125003.56
109955.9647,,-75155.14
121687.5013,,-17411.09
127898.6487,,42506.27
129236.3559,,98630.94
125793.6061,,145353.2
117206.1106,,177964.25
91516.13313,,193103.82
36057.65534,,189086.75
-26011.79791,,166091.36
-73483.77389,,126190.92
-83920.161,,73208.45
-84843.28805,,12382.77
-87020.07973,,-50142.88
-90889.88196,,-107965.24
-95407.79536,,-155120.46
-98968.24944,,-186742.1
-82318.97143,,-199585.5
-29443.86356,,-192353
30866.23917,,-165794.17
85984.79163,,-122592.52
119301.229,,-67074.14
122894.272,,-4780.27
118159.636,,58058.65
111098.3623,,115115.35
101993.7369,,160588.53
92393.30499,,189806.65
72931.01524,,199745.56
26391.50934,,189385.35
-28507.10195,,159842.16
-71278.19315,,114243.85
-87123.12128,,57363.91
-95992.6511,,-4927.69
-104650.7334,,-66310.9
-112191.3179,,-120669.82
-118028.1631,,-162683.26
-114876.9694,,-188307.49
-81214.25882,,-195129.58
-32134.34304,,-182580.59
18830.85297,,-151995.96
67543.66369,,-106506.64
97475.1082,,-50748.74
98144.09591,,9601.28
92889.87135,,68426.44
86907.06931,,119832.1
82838.82831,,158779.28
80561.58788,,181598.71
74941.59936,,186322.01
41693.42419,,172805.99
-8787.901257,,142664.02
-58989.33816,,99043.26
-100182.4409,,46290.98
-118562.4145,,-10455.01
-125003.2038,,-65728.46
-126803.1003,,-114229.83
-124132.5139,,-151325.71
-116834.267,,-173508.26
-97955.76012,,-178756.47
-54321.31044,,-166742.77
-1364.752813,,-138847.54
49949.26452,,-97978.68
77349.23987,,-48229.4
81219.39972,,5566.34
83903.576,,58314.74
88565.70286,,105124.75
94059.00169,,141718.89
99345.09985,,164778
96889.4925,,172213.11
60546.89712,,163353.9
6056.920416,,139032.88
-50771.40638,,101539.87
-100684.3717,,54429.4
-120359.4053,,2185.19
-117849.0809,,-50224.63
-111829.5326,,-97844.32
-103666.5861,,-136212.11
-94786.10394,,-161768.75
-84595.80953,,-172157.01
-59443.07857,,-166401.49
-3901.139367,,-144975.03
53573.73399,,-109761.93
84237.42166,,-63922.24
95276.85884,,-11652.96
104826.1052,,42156.68
113102.2409,,92365.51
119566.4995,,134082.2
122813.4033,,163170.67
108604.1759,,176689.62
58087.13235,,173203.2
-5858.794553,,152923.47
-67593.7763,,117678.15
-100433.898,,70724.35
-100176.3165,,16444.01
-95442.61938,,-40043.8
-89854.50445,,-93327.38
-85630.6506,,-138183.9
-82817.10241,,-170075.32
-79052.88983,,-185621.37
-46273.38603,,-182995.46
16055.74978,,-162180.12
75925.03141,,-125027.55
108925.0128,,-75099.77
120520.1144,,-17302.93
126834.3481,,42631.21
128255.1143,,98741.03
124903.9173,,145431.39
116461.5293,,178010.11
91330.25602,,193127.41
36097.39674,,189098.24
-26058.46835,,166092.26
-73082.47067,,126171.89
-83034.45077,,73154.81
-83862.00176,,12284.81
-85975.04627,,-50280.56
-89776.58627,,-108120.48
-94251.45021,,-155258.83
-97875.42795,,-186828.57
-82029.73986,,-199597.27
-29530.40952,,-192287.65
30805.80006,,-165669.6
85865.38862,,-122439.01
118618.3832,,-66922.45
122026.1749,,-4651.32
117347.2395,,58158.34
110306.8424,,115191.01
101196.7631,,160649.7
91579.20975,,189858.95
72543.25718,,199786.05
26353.33256,,189403.38
-28530.66069,,159825.14
-70710.59295,,114184.91
-86051.57865,,57267.84
-94893.07939,,-5043.12
-103531.1345,,-66418.7
-111075.4742,,-120741.4
-116932.1229,,-162697.05
-114247.9466,,-188255.44
-81154.08792,,-195019.57
-32027.4123,,-182433.9
19014.27138,,-151840.96
67694.71677,,-106370.63
97055.07422,,-50650.64
97374.97239,,9655.15
92127.85567,,68442.3
86110.14022,,119824.52
81956.33673,,158764.45
79616.2879,,181587.67
74236.62534,,186316.44
41493.06315,,172797.97
-8938.417904,,142640.11
-59098.32526,,98991.16
-99749.44291,,46206.17
-117566.4654,,-10565.24
-124061.7483,,-65845.56
-125929.1024,,-114328.86
-123346.1348,,-151383.17
-116135.1938,,-173509.84
-97559.19547,,-178702.09
-54129.75599,,-166646.88
-1234.978585,,-138734.67
49987.53071,,-97875.67
76813.37915,,-48157.12
80452.19844,,5598.85
83068.82776,,58311.64
87674.22589,,105099.94
93155.09715,,141689.14
98425.01264,,164755.62
96292.03037,,172201.2
60426.153,,163346.22
6011.904003,,139018.33
-50729.60862,,101509.47
-100433.2722,,54382.29
-119825.6904,,2130.55
-117322.1162,,-50271.09
-111340.0294,,-97867.8
-103183.8331,,-136206.67
-94285.29075,,-161741.47
-84122.53369,,-172125.89
-59263.81758,,-166387.52
-3965.691205,,-144991.92
53319.10292,,-109808.59
83507.10076,,-63981.83
94441.52945,,-11699.7
103979.0188,,42146.1
112291.7667,,92401.19
118776.4995,,134156.2
122140.7052,,163260.62
108440.1141,,176768.98
58286.19698,,173253.05
-5690.843545,,152940.22
-67474.37328,,117673.36
-100037.5569,,70717.17
-99733.93079,,16450.44
-95052.58144,,-40019.14
-89442.20417,,-93292.63
-85166.67308,,-138154.16
-82307.0356,,-170062.82
-78581.08921,,-185627.13
-46230.6495,,-183006.92
16005.01132,,-162176.02
75749.3467,,-124987.62
108360.7207,,-75014.31
119897.0371,,-17177.66
126320.5262,,42777.1
127840.9365,,98882.29
124568.8647,,145545.77
116107.88,,178084.94
91278.62349,,193161.3
36232.89302,,189098.1
-25829.45238,,166068.12
-72822.51988,,126132.35
-82726.98018,,73105.02
-83513.58277,,12227.13
-85575.39708,,-50344.51
-89241.30669,,-108188.02
-93642.76751,,-155325.41
-97285.83363,,-186887.94
-81829.33412,,-199642.02
-29519.09954,,-192309.77
30888.59092,,-165661.29
86014.20653,,-122394.47
118523.8801,,-66840.79
121833.7711,,-4539.82
117114.0214,,58282.51
110098.6135,,115302.64
101056.8858,,160721.52
91475.40825,,189870.32
72523.54294,,199731.02
26315.02167,,189294.14
-28591.45744,,159688.8
-70564.45725,,114054.23
-85703.38317,,57169.59
-94519.22411,,-5096.97
-103149.1432,,-66433.2
-110702.5576,,-120733.35
-116561.531,,-162685.02
-114046.6468,,-188250.17
-81070.04536,,-195019.38
-31873.85581,,-182427.22
19195.09699,,-151814.22
67856.05167,,-106317.35
97138.1333,,-50576.9
97382.21435,,9731.54
92125.97813,,68498.41
86068.29775,,119841.28
81829.33412,,158733.79
79425.98515,,181514.86
74000.23329,,186217.12
41304.99557,,172692.09
-9148.74782,,142545.91
-59277.89918,,98921.48
-99687.39446,,46167.88
-117296.6799,,-10569.99
-123838.5885,,-65818.02
-125770.4944,,-114273.53
-123271.7035,,-151308.49
-116110.4728,,-173428.49
-97386.50589,,-178629.49
-53858.98696,,-166597.58
-1036.942129,,-138717.92
50105.59262,,-97892.22
76784.45599,,-48199.06
80335.34352,,5544.77
82886.34811,,58258.83
87442.66182,,105057.33
92923.30956,,141659.5
98170.38157,,164737.33
96054.78895,,172192.2
60283.63827,,163347.45
5923.793426,,139034.39
-50772.56868,,101545.83
-100435.105,,54440.34
-119780.2269,,2203.57
-117292.4331,,-50198.39
-111327.8701,,-97815.18
-103179.7204,,-136191.12
-94262.49197,,-161770
-84096.38215,,-172191.89
-59226.71368,,-166472.52
-3920.898309,,-145072.21
53245.47628,,-109863.77
83216.66219,,-64001.7
94088.72951,,-11686.47
103612.4502,,42180.54
111927.8803,,92441.36
118388.1156,,134189.33
121795.3261,,163280.31
108258.0368,,176775.09
58253.92106,,173248.64
-5673.85622,,152927.69
-67451.84272,,117651.96
-99982.88452,,70683.18
-99637.10304,,16399.53
-94967.95773,,-40088.89
-89340.19081,,-93378.77
-84992.50829,,-138249.97
-82070.77766,,-170159.03
-78342.28317,,-185714.39
-46264.71356,,-183077.56
15898.70642,,-162224.59
75560.9215,,-125010.5
107974.4825,,-75009.25
119467.5707,,-17144.09
125947.7885,,42836.86
127530.292,,98961.69
124360.8146,,145633.56
116054.9064,,178166.41
91382.38029,,193221.26
36344.02589,,189124.6
-25839.19774,,166055.47
-72782.46555,,126082.41
-82582.76672,,73026.29
-83293.37338,,12132.28
-85288.80302,,-50441.59
-88932.98673,,-108274.56
-93334.76047,,-155391.01
-96975.45731,,-186925.07
-81794.73362,,-199646.18
-29651.28775,,-192279.81
30781.57077,,-165599.85
85948.40299,,-122308.05
118328.4811,,-66739.1
121644.0495,,-4434.21
116992.2938,,58381.06
110000.1317,,115385.08
100936.7229,,160781.41
91328.24437,,189903.46
72448.44108,,199734.68
26254.00141,,189266.77
-28679.70212,,159630.64
-70371.78521,,113968.76
-85234.62239,,57064.77
-94004.37403,,-5208.64
-102608.0522,,-66536.46
-110176.1741,,-120813.34
-116047.0833,,-162730.76
-113693.4446,,-188256.93
-80854.79806,,-194989.06
-31587.9323,,-182366.99
19553.17194,,-151734.3
68139.6059,,-106229.12
97149.84562,,-50491.78
97230.84834,,9802.55
91959.36822,,68545.5
85860.69475,,119857.45
81529.86545,,158717.04
79060.75764,,181469.74
73618.06317,,186154.25
41025.24114,,172625.06
-9393.901753,,142486.31
-59469.81126,,98874.56
-99568.57259,,46131.18
-116813.8822,,-10603.92
-123419.8956,,-65855.79
-125419.5273,,-114315.15
-123001.6944,,-151345.27
-115891.6045,,-173446.49
-97181.98743,,-178617.37
-53636.67651,,-166554.92
-843.0630974,,-138659.05
50360.84954,,-97842.48
76737.69614,,-48184.33
80030.1081,,5510.81
82388.30654,,58183.09
86750.47299,,104966.44
92114.39992,,141589.16
97290.70631,,164716.28
95372.83723,,172228.45
59910.14062,,163423.71
5646.229463,,139115.48
-50886.16024,,101594.71
-100296.2113,,54435.44
-119370.0277,,2148.83
-116914.778,,-50275.65
-111001.8028,,-97877.55
-102861.074,,-136209.02
-93897.89032,,-161735.72
-83653.23647,,-172122.91
-59045.44104,,-166402.75
-3912.315239,,-145035.53
53078.06171,,-109877.78
82640.38952,,-64059.04
93429.66597,,-11757.63
102970.4187,,42134.8
111379.1897,,92453.62
117926.5073,,134272.37
121473.7292,,163422.28
108270.0173,,176944.38
58497.10804,,173405.6
-5433.127932,,153038.33
-67265.07154,,117698.53
-99871.34932,,70668.33
-99573.35586,,16343.47
-94893.03468,,-40156.5
-89209.4331,,-93429.17
-84780.21142,,-138264.33
-81800.09804,,-170133.54
-78091.45189,,-185659.81
-46367.53158,,-183013.59
15723.64756,,-162170.99
75378.9783,,-124978.41
107618.4192,,-74996.29
119122.5492,,-17135.6
125723.7793,,42860.5
127399.8919,,99014.59
124334.7525,,145715.44
116066.6634,,178259.91
91474.87181,,193297.28
36454.66703,,189153.97
-25766.24164,,166021.81
-72723.45695,,125990.04
-82462.0226,,72899.21
-83100.03079,,12004.44
-85022.102,,-50540.29
-88590.06626,,-108329.76
-92968.46008,,-155407.5
-96603.7478,,-186920.9
-81689.50161,,-199640.77
-29633.62987,,-192282.46
30876.38687,,-165604.75
86129.72035,,-122298.45
118329.4646,,-66698.22
121634.7959,,-4356.96
117052.0624,,58481.77
110089.1364,,115481.22
100996.2232,,160840.3
91317.51553,,189900.96
72445.58006,,199664.61
26179.92773,,189142.41
-28785.7835,,159478.27
-70272.94579,,113816.84
-84979.8125,,56934.36
-93744.37854,,-5308.39
-102304.9178,,-66606.55
-109823.7765,,-120859.39
-115676.536,,-162757.31
-113485.2157,,-188264.74
-80816.48717,,-194976.14
-31511.84696,,-182331.78
19692.51271,,-151678.67
68296.24692,,-106159.18
97214.9339,,-50416.55
97205.68028,,9873.38
91900.49373,,68603.18
85754.83689,,119894.52
81337.50633,,158727.15
78807.69119,,181448.29
73377.24547,,186100.55
40912.32013,,172545.13
-9512.410702,,142394.42
-59610.0461,,98791.19
-99429.58944,,46077.09
-116411.1038,,-10615.46
-123052.8799,,-65824.9
-125102.8031,,-114255.78
-122751.0867,,-151279.04
-115706.0403,,-173392.21
-97078.94588,,-178581.39
-53617.3646,,-166527.57
-829.1156088,,-138619.63
50205.41551,,-97770.94
76428.83973,,-48073.94
79745.16806,,5646.52
82167.73953,,58313.3
86551.14014,,105055.46
91930.93681,,141612.56
97130.26549,,164673.03
95308.64302,,172142.83
59956.0064,,163335.61
5711.27304,,139063.22
-50825.89994,,101598.49
-100272.1161,,54488.98
-119326.2183,,2223.14
-116824.2981,,-50218.28
-110901.8905,,-97866
-102779.8477,,-136250.4
-93888.81551,,-161812.64
-83757.66382,,-172201.95
-59051.69953,,-166449.76
-3957.108135,,-145030.58
52951.1038,,-109823.22
82350.12977,,-63977.53
93087.37136,,-11681.66
102596.027,,42176.88
110969.8398,,92448.85
117463.1557,,134227.08
121045.738,,163357.72
108039.3026,,176886.32
58437.47359,,173372.75
-5392.850088,,153034.25
-67205.97353,,117710.28
-99749.48761,,70672.06
-99402.27561,,16314.55
-94735.72311,,-40232.87
-89065.30906,,-93550.99
-84558.75034,,-138412.24
-81542.15891,,-170277.06
-77849.42721,,-185767.98
-46343.4811,,-183066.21
15719.35603,,-162165.95
75279.066,,-124932.08
107283.4113,,-74936.66
118727.0574,,-17090.82
125405.6693,,42873.51
127148.6583,,98996.42
124152.8987,,145682.44
115940.5549,,178234.87
91481.26441,,193296.69
36552.03123,,189177.68
-25695.65483,,166050.39
-72668.56106,,125991.69
-82372.66032,,72843.82
-82951.92813,,11878.59
-84817.40473,,-50724.16
-88289.56941,,-108534.81
-92603.72431,,-155584.51
-96235.88279,,-187026.15
-81572.42317,,-199652.17
-29673.95242,,-192207
30845.45205,,-165474.25
86097.26561,,-122155.59
118221.1033,,-66579.3
121553.5696,,-4279.02
116984.2025,,58524.33
110036.7886,,115509.44
100968.5965,,160877.24
91307.05491,,189958.55
72475.75491,,199737.07
26215.77993,,189209
-28758.60378,,159513.63
-70136.28723,,113803.79
-84666.08342,,56873.11
-93368.42219,,-5398.71
-101916.5339,,-66694.55
-109500.2573,,-120913
-115395.8875,,-162755.37
-113318.6058,,-188203.79
-80723.19099,,-194870.31
-31368.48287,,-182206.42
19875.70761,,-151560.8
68442.74025,,-106068.67
97303.75973,,-50361.07
97266.61113,,9898.42
91962.81039,,68610.39
